BVP
-3.27
6.25
13.86
19.77
24.3
27.67
29.87
30.84
30.71
29.83
28.69
27.76
27.22
26.99
26.82
26.45
25.83
25.05
24.23
23.38
22.34
20.81
18.54
15.51
11.92
8.16
4.58
1.39
-1.4
-3.97
-6.51
-9.2
-12.08
-15.1
-18.18
-21.21
-24.19
-27.19
-30.41
-34.06
-38.31
-43.12
-48.21
-52.96
-56.46
-57.74
-55.92
-50.57
-41.84
-30.58
-18.13
-5.94
4.71
13.12
19.16
23.21
26.04
28.5
31.34
35.13
40.18
46.42
53.4
60.25
66.01
69.95
71.68
71.12
68.41
63.92
58.2
52.13
46.73
43.0
41.76
43.09
46.18
49.6
51.88
52.04
49.81
45.51
39.91
34.87
32.25
33.35
38.34
46.11
54.3
59.74
59.13
50.29
34.55
15.1
-4.31
-20.62
-31.83
-37.03
-36.59
-32.15
-26.13
-18.29
-8.08
4.71
19.36
34.71
49.54
62.39
71.78
76.71
80.8
88.22
101.45
119.87
140.83
161.38
179.38
194.01
186.97
149.27
85.26
11.39
-55.47
-106.75
-141.95
-164.5
-176.87
-183.81
-184.54
-177.78
-164.2
-147.14
-130.85
-118.54
-111.89
-110.63
-113.57
-116.37
-115.66
-110.61
-102.99
-95.59
-90.44
-88.35
-89.05
-92.0
-94.73
-95.29
-92.9
-88.1
-81.86
-74.96
-67.81
-60.68
-53.98
-47.16
-39.86
-32.15
-24.63
-17.97
-12.59
-8.55
-5.61
-3.54
-1.77
0.07
2.1
4.15
6.02
7.59
8.79
9.58
9.86
9.59
8.79
7.61
6.28
5.02
3.96
2.97
1.78
0.09
-2.29
-5.33
-8.72
-12.06
-15.03
-17.47
-19.51
-21.47
-23.66
-26.36
-29.63
-33.31
-36.96
-39.91
-41.38
-40.67
-37.42
-31.79
-24.48
-16.45
-8.7
-1.92
3.64
8.0
11.36
13.83
15.46
16.29
16.49
16.32
16.15
16.21
16.54
16.99
17.27
17.18
16.68
15.9
15.05
14.27
13.57
12.82
11.82
10.42
8.56
6.3
3.75
1.04
-1.67
-4.28
-6.66
-8.75
-10.54
-12.21
-14.02
-16.32
-19.41
-23.35
-27.91
-32.58
-36.63
-39.31
-39.99
-38.35
-34.42
-28.66
-21.75
-14.51
-7.66
-1.7
3.12
6.78
9.43
11.3
12.62
13.58
14.33
14.96
15.54
16.12
16.71
17.32
17.94
18.52
19.01
19.32
19.35
19.04
18.35
17.28
15.83
14.06
12.04
9.84
7.48
4.96
2.3
-0.45
-3.17
-5.72
-8.01
-10.02
-11.9
-13.91
-16.33
-19.44
-23.34
-27.88
-32.57
-36.69
-39.37
-39.84
-37.66
-32.92
-26.18
-18.34
-10.35
-3.02
3.2
8.16
11.89
14.57
16.34
17.38
17.88
18.06
18.17
18.44
18.98
19.74
20.55
21.1
21.18
20.72
19.81
18.68
17.59
16.69
15.92
15.11
14.02
12.46
10.4
7.93
5.22
2.44
-0.33
-3.07
-5.76
-8.43
-11.11
-13.93
-17.08
-20.79
-25.17
-30.04
-34.79
-38.46
-40.08
-38.97
-35.07
-28.89
-21.34
-13.42
-5.86
0.92
6.81
11.75
15.61
18.22
19.5
19.62
18.98
18.12
17.66
17.96
19.05
20.61
22.1
23.02
23.05
22.1
20.31
18.18
16.24
14.71
13.34
11.63
9.14
5.67
1.38
-3.36
-7.73
-10.95
-12.92
-14.31
-16.1
-18.93
-22.99
-28.17
-34.21
-40.22
-45.29
-49.11
-52.06
-54.57
-56.38
-56.67
-54.38
-48.68
-38.2
-21.81
0.64
27.97
58.11
88.73
117.16
140.57
151.3
144.01
120.77
91.32
66.42
51.52
46.14
46.13
46.65
44.15
38.18
30.05
21.19
12.43
3.31
-5.67
-13.12
-17.49
-18.11
-14.72
-7.88
0.98
10.04
17.87
24.14
29.08
33.65
38.02
42.34
46.57
50.42
53.52
55.84
58.24
62.21
69.35
80.81
97.18
118.15
142.37
167.72
191.89
212.97
229.63
241.1
246.97
247.43
243.25
235.79
226.98
219.16
214.83
215.93
223.17
235.28
248.89
259.14
260.95
250.61
227.09
192.3
150.28
105.68
62.28
22.33
-13.38
-44.78
-71.9
-94.74
-113.54
-129.16
-143.07
-156.9
-171.79
-187.97
-204.74
-220.94
-235.49
-247.99
-258.83
-269.2
-280.77
-295.13
-313.02
-333.63
-354.29
-370.84
-378.84
-375.1
-358.78
-331.72
-297.52
-260.18
-222.76
-186.86
-153.0
-121.27
-91.85
-64.98
-40.6
-18.07
3.64
25.23
46.46
65.83
81.07
89.95
91.32
85.53
74.36
60.36
46.07
33.3
22.92
14.87
8.6
3.37
-1.32
-5.72
-9.8
-13.4
-16.41
-18.84
-20.86
-22.72
-24.58
-26.58
-28.75
-31.22
-34.13
-37.69
-41.92
-46.53
-50.91
-54.16
-55.48
-54.45
-51.18
-46.35
-40.81
-35.38
-30.47
-26.18
-22.32
-18.72
-15.28
-12.05
-9.13
-6.57
-4.39
-2.52
-0.89
0.59
1.96
3.25
4.46
5.52
6.32
6.71
6.62
6.02
5.01
3.68
2.13
0.42
-1.43
-3.37
-5.31
-7.09
-8.63
-9.88
-11.02
-12.33
-14.18
-16.88
-20.54
-24.95
-29.58
-33.7
-36.49
-37.38
-36.1
-32.84
-28.12
-22.62
-16.99
-11.69
-6.93
-2.75
0.88
3.95
6.43
8.28
9.54
10.37
10.98
11.61
12.41
13.39
14.48
15.54
16.42
17.03
17.31
17.25
16.92
16.34
15.53
14.51
13.22
11.64
9.74
7.57
5.19
2.67
0.06
-2.56
-5.13
-7.65
-10.17
-12.85
-15.95
-19.66
-23.97
-28.49
-32.5
-35.11
-35.59
-33.68
-29.63
-24.19
-18.24
-12.55
-7.52
-3.26
0.35
3.48
6.15
8.36
10.07
11.32
12.32
13.36
14.68
16.42
18.5
20.68
22.68
24.23
25.2
25.64
25.71
25.62
25.48
25.31
24.99
24.37
23.33
21.79
19.79
17.41
14.73
11.86
8.92
6.02
3.26
0.64
-1.95
-4.7
-7.87
-11.65
-16.08
-21.05
-26.19
-30.96
-34.68
-36.66
-36.43
-33.84
-29.19
-23.11
-16.41
-9.83
-3.85
1.32
5.72
9.46
12.61
15.23
17.34
19.0
20.33
21.5
22.64
23.82
25.0
26.06
26.92
27.46
27.64
27.46
26.94
26.06
24.8
23.12
21.08
18.8
16.48
14.34
12.45
10.8
9.22
7.51
5.52
3.23
0.76
-1.75
-4.18
-6.5
-8.84
-11.38
-14.36
-17.91
-22.03
-26.48
-30.77
-34.18
-35.97
-35.57
-32.8
-27.93
-21.66
-14.82
-8.18
-2.25
2.76
6.89
10.29
13.08
15.29
16.94
18.05
18.74
19.19
19.66
20.3
21.12
22.04
22.89
23.51
23.8
23.73
23.32
22.54
21.42
19.97
18.24
16.28
14.15
11.85
9.38
6.74
4.05
1.44
-0.94
-3.08
-5.09
-7.19
-9.59
-12.42
-15.68
-19.32
-23.25
-27.35
-31.34
-34.74
-36.87
-36.96
-34.53
-29.6
-22.75
-14.97
-7.33
-0.62
4.8
8.95
12.06
14.39
16.13
17.43
18.44
19.35
20.33
21.45
22.67
23.83
24.73
25.21
25.28
25.01
24.54
23.94
23.19
22.17
20.78
19.0
16.93
14.81
12.83
11.11
9.57
7.98
6.15
3.92
1.37
-1.35
-4.05
-6.59
-8.99
-11.41
-14.05
-17.14
-20.8
-25.03
-29.52
-33.75
-36.98
-38.43
-37.54
-34.12
-28.48
-21.32
-13.58
-6.14
0.36
5.61
9.6
12.55
14.74
16.44
17.79
18.86
19.64
20.13
20.32
20.29
20.14
20.01
19.98
20.09
20.29
20.43
20.35
19.81
18.68
16.9
14.53
11.73
8.71
5.69
2.79
0.01
-2.67
-5.38
-8.11
-10.85
-13.51
-16.0
-18.25
-20.3
-22.26
-24.26
-26.51
-29.11
-32.02
-34.95
-37.31
-38.36
-37.38
-34.0
-28.35
-21.08
-13.18
-5.64
0.84
5.96
9.7
12.27
13.86
14.68
14.92
14.8
14.62
14.66
15.1
15.99
17.2
18.42
19.39
19.85
19.73
19.09
18.09
16.91
15.71
14.52
13.25
11.78
9.93
7.61
4.8
1.6
-1.76
-4.98
-7.74
-9.9
-11.52
-12.9
-14.47
-16.63
-19.56
-23.13
-26.92
-30.31
-32.61
-33.23
-31.8
-28.28
-22.97
-16.49
-9.57
-2.96
2.79
7.37
10.73
12.9
14.03
14.29
13.91
13.2
12.52
12.22
12.51
13.34
14.46
15.45
15.95
15.78
15.0
13.89
12.74
11.72
10.75
9.6
8.04
6.0
3.6
1.11
-1.21
-3.19
-4.9
-6.5
-8.22
-10.3
-12.94
-16.3
-20.41
-25.08
-29.77
-33.62
-35.66
-35.11
-31.69
-25.8
-18.37
-10.57
-3.43
2.43
6.77
9.73
11.59
12.61
13.0
12.96
12.71
12.46
12.42
12.72
13.4
14.38
15.5
16.55
17.31
17.62
17.43
16.84
16.03
15.14
14.22
13.11
11.55
9.39
6.66
3.6
0.59
-2.06
-4.25
-6.07
-7.75
-9.58
-11.8
-14.69
-18.44
-23.03
-28.13
-32.94
-36.34
-37.21
-34.87
-29.41
-21.71
-13.11
-4.98
1.74
6.78
10.37
12.92
14.79
16.12
16.86
17.01
16.73
16.33
16.19
16.55
17.41
18.6
19.79
20.66
21.04
20.9
20.29
19.39
18.31
17.09
15.71
14.06
12.07
9.71
7.05
4.24
1.44
-1.23
-3.73
-6.08
-8.34
-10.6
-12.92
-15.35
-17.99
-20.93
-24.21
-27.77
-31.25
-33.98
-35.15
-33.97
-30.11
-23.86
-16.12
-8.12
-0.98
4.68
8.76
11.6
13.66
15.2
16.31
16.89
16.96
16.67
16.36
16.41
17.07
18.28
19.73
20.95
21.56
21.35
20.4
18.95
17.31
15.67
14.12
12.62
11.06
9.31
7.28
4.96
2.38
-0.34
-3.1
-5.74
-8.16
-10.36
-12.43
-14.55
-17.01
-20.09
-23.94
-28.44
-33.13
-37.21
-39.75
-39.91
-37.22
-31.78
-24.2
-15.5
-6.78
1.03
7.33
11.94
14.99
16.76
17.53
17.57
17.13
16.53
16.14
16.33
17.28
18.91
20.83
22.54
23.58
23.72
23.01
21.75
20.27
18.82
17.46
16.08
14.45
12.36
9.75
6.72
3.57
0.58
-2.03
-4.24
-6.23
-8.23
-10.52
-13.28
-16.63
-20.61
-25.15
-29.95
-34.44
-37.75
-38.93
-37.22
-32.36
-24.82
-15.64
-6.17
2.36
9.17
14.08
17.3
19.29
20.45
21.02
21.1
20.81
20.32
19.93
19.94
20.49
21.5
22.66
23.53
23.75
23.12
21.72
19.8
17.72
15.8
14.19
12.93
11.86
10.78
9.44
7.63
5.2
2.17
-1.28
-4.81
-8.07
-10.8
-12.96
-14.85
-16.96
-19.83
-23.7
-28.41
-33.37
-37.65
-40.25
-40.42
-37.81
-32.6
-25.39
-17.12
-8.78
-1.21
5.03
9.73
12.96
14.99
16.12
16.63
16.75
16.66
16.5
16.39
16.38
16.49
16.7
17.01
17.39
17.81
18.19
18.37
18.2
17.55
16.46
15.03
13.36
11.53
9.52
7.25
4.67
1.8
-1.28
-4.45
-7.62
-10.75
-13.85
-16.92
-19.99
-23.05
-26.14
-29.35
-32.81
-36.53
-40.24
-43.39
-45.14
-44.69
-41.58
-35.91
-28.38
-20.01
-11.8
-4.46
1.71
6.75
10.77
13.93
16.26
17.81
18.7
19.12
19.35
19.66
20.32
21.49
23.28
25.65
28.46
31.44
34.28
36.7
38.49
39.64
40.34
40.97
41.93
43.4
45.19
46.67
46.94
45.27
41.35
35.5
28.44
20.99
13.79
7.07
0.76
-5.4
-11.67
-18.33
-25.45
-32.9
-40.26
-46.79
-51.61
-53.95
-53.43
-50.16
-44.67
-37.81
-30.47
-23.48
-17.52
-13.0
-10.1
-8.6
-8.07
-7.91
-7.62
-6.94
-5.9
-4.71
-3.64
-2.91
-2.59
-2.78
-3.52
-4.88
-6.81
-9.17
-11.61
-13.81
-15.47
-16.54
-17.15
-17.58
-18.12
-18.9
-19.88
-20.91
-21.88
-22.78
-23.8
-25.23
-27.37
-30.44
-34.46
-39.24
-44.28
-48.9
-52.21
-53.32
-51.49
-46.41
-38.3
-27.96
-16.6
-5.56
4.02
11.38
16.28
18.94
19.88
19.75
19.17
18.65
18.54
19.08
20.39
22.44
25.06
27.9
30.53
32.52
33.63
33.84
33.33
32.31
30.95
29.26
27.1
24.33
20.9
16.94
12.68
8.42
4.34
0.51
-3.16
-6.91
-10.98
-15.6
-20.84
-26.59
-32.47
-37.91
-42.12
-44.28
-43.77
-40.34
-34.24
-26.2
-17.29
-8.57
-0.93
5.1
9.38
12.04
13.49
14.2
14.64
15.19
16.11
17.44
19.08
20.82
22.38
23.55
24.18
24.27
23.92
23.28
22.5
21.62
20.52
19.08
17.17
14.79
12.08
9.28
6.63
4.26
2.17
0.2
-1.96
-4.64
-8.11
-12.39
-17.14
-21.64
-24.91
-25.98
-24.09
-19.06
-11.27
-1.67
8.42
17.61
24.74
29.09
30.45
29.08
25.6
20.81
15.65
11.05
7.87
6.76
8.0
11.35
16.18
21.53
26.47
30.28
32.61
33.45
33.0
31.55
29.38
26.81
24.11
21.55
19.32
17.45
15.82
14.04
11.67
8.22
3.44
-2.5
-8.97
-14.89
-19.01
-20.26
-18.08
-12.63
-4.78
4.18
12.93
20.46
26.31
30.48
33.3
35.22
36.68
37.94
39.15
40.22
40.9
40.83
39.65
37.16
33.42
28.72
23.53
18.39
13.74
9.88
7.01
5.11
4.0
3.29
2.5
1.21
-0.79
-3.39
-6.28
-9.1
-11.65
-14.03
-16.59
-19.72
-23.57
-27.84
-31.71
-34.05
-33.78
-30.21
-23.38
-13.98
-3.22
7.6
17.34
25.28
31.15
34.96
36.96
37.52
37.03
35.9
34.45
32.91
31.37
29.88
28.44
27.11
25.89
24.79
23.81
22.93
22.11
21.34
20.57
19.67
18.52
17.06
15.37
13.64
12.13
10.99
10.27
9.93
9.94
10.24
10.76
11.34
11.8
12.01
12.06
12.27
13.03
14.46
16.3
17.86
18.29
16.99
13.78
8.96
3.07
-3.41
-10.19
-17.19
-24.38
-31.66
-38.72
-45.21
-50.67
-54.76
-57.26
-58.07
-57.27
-55.06
-51.71
-47.59
-43.06
-38.54
-34.41
-30.99
-28.46
-26.76
-25.64
-24.76
-23.81
-22.69
-21.51
-20.62
-20.39
-21.06
-22.67
-24.89
-27.1
-28.47
-28.11
-25.36
-20.0
-12.4
-3.38
5.95
14.65
22.12
28.14
32.73
35.93
37.68
37.9
36.62
34.14
31.02
28.02
25.94
25.51
27.16
30.93
36.27
42.12
47.02
49.57
48.76
44.26
36.45
26.16
14.41
2.14
-9.89
-21.16
-31.29
-40.21
-48.05
-55.22
-62.29
-69.73
-77.74
-86.15
-94.34
-101.49
-106.86
-109.97
-110.89
-110.15
-108.58
-107.0
-106.1
-106.32
-108.02
-111.54
-117.27
-125.44
-135.91
-147.95
-160.51
-172.37
-182.69
-191.32
-198.83
-206.31
-215.11
-226.5
-241.37
-259.78
-280.52
-300.93
-317.29
-325.8
-323.87
-311.16
-289.69
-263.06
-235.06
-208.39
-184.11
-161.9
-140.88
-120.17
-99.26
-77.69
-54.87
-30.02
-2.37
28.3
61.48
95.83
129.54
160.94
189.03
213.77
235.98
256.78
276.82
295.75
312.04
323.49
328.03
324.48
312.99
294.83
271.98
246.51
220.27
194.77
171.24
150.64
133.64
120.57
111.51
106.4
105.09
107.41
112.82
120.14
127.32
131.55
129.86
119.86
100.49
72.45
38.12
1.13
-34.28
-64.0
-84.57
-93.7
-90.48
-75.57
-51.13
-20.56
12.11
42.83
68.32
86.56
96.94
100.2
98.1
92.99
87.47
83.96
84.33
89.52
99.16
111.39
123.0
130.06
128.98
117.61
96.26
67.88
37.49
10.82
-7.23
-13.81
-8.62
6.56
28.62
54.03
79.34
101.29
116.8
123.07
117.87
100.03
69.97
30.09
-15.29
-60.39
-98.87
-124.95
-134.59
-126.36
-101.84
-65.11
-21.78
22.37
62.46
95.15
118.71
132.7
137.62
134.76
126.1
114.25
102.27
93.1
88.73
89.6
94.32
100.04
103.39
101.67
93.69
80.1
63.0
45.03
28.4
14.3
2.72
-7.11
-16.26
-25.57
-35.58
-46.58
-58.78
-72.25
-86.72
-101.3
-114.46
-124.3
-129.14
-128.16
-121.73
-111.32
-98.94
-86.49
-75.18
-65.36
-56.79
-49.02
-41.76
-35.03
-29.03
-23.92
-19.72
-16.18
-12.99
-9.84
-6.62
-3.47
-0.74
1.1
1.6
0.55
-1.99
-5.69
-10.13
-14.89
-19.66
-24.28
-28.74
-33.17
-37.85
-43.11
-49.03
-55.23
-60.56
-63.34
-61.84
-55.04
-43.14
-27.69
-11.11
4.13
16.31
24.92
30.43
33.88
36.21
37.96
39.18
39.74
39.63
39.06
38.45
38.12
38.1
38.04
37.36
35.47
32.16
27.55
22.09
16.36
10.79
5.67
1.1
-2.9
-6.35
-9.39
-12.4
-15.95
-20.77
-27.38
-35.77
-45.06
-53.52
-59.02
-59.62
-54.28
-43.27
-28.12
-11.11
5.45
19.79
31.04
39.07
44.2
46.85
47.45
46.45
44.38
41.78
39.18
36.85
34.85
33.02
31.11
28.89
26.15
22.72
18.47
13.48
8.02
2.57
-2.34
-6.38
-9.58
-12.32
-15.14
-18.65
-23.27
-29.3
-36.78
-45.4
-54.31
-62.09
-66.92
-67.12
-61.72
-50.95
-36.27
-19.94
-4.31
8.93
18.98
25.95
30.41
33.02
34.28
34.49
33.85
32.61
31.05
29.45
28.05
26.95
26.1
25.3
24.21
22.43
19.62
15.63
10.55
4.67
-1.58
-7.8
-13.73
-19.21
-24.23
-28.82
-33.08
-37.24
-41.63
-46.56
-52.07
-57.76
-62.61
-65.23
-64.3
-58.98
-49.4
-36.66
-22.54
-8.93
2.69
11.56
17.66
21.37
23.18
23.47
22.51
20.58
18.13
15.77
14.08
13.42
13.81
14.95
16.39
17.74
18.74
19.25
19.11
18.12
16.06
12.81
8.51
3.54
-1.5
-6.01
-9.58
-12.2
-14.24
-16.43
-19.6
-24.47
-31.37
-40.0
-49.3
-57.47
-62.35
-61.95
-55.14
-42.06
-24.21
-3.99
15.95
33.35
46.82
55.77
60.27
60.73
57.78
52.24
45.18
37.82
31.41
26.87
24.62
24.35
25.25
26.17
26.07
24.35
20.97
16.44
11.57
7.1
3.45
0.68
-1.53
-3.57
-5.75
-8.14
-10.64
-13.11
-15.53
-18.03
-20.93
-24.59
-29.28
-35.1
-41.8
-48.71
-54.69
-58.32
-58.22
-53.49
-44.15
-31.21
-16.4
-1.65
11.46
22.0
29.69
34.67
37.21
37.61
36.21
33.5
30.2
27.14
25.1
24.51
25.31
26.92
28.46
29.07
28.27
26.17
23.46
21.01
19.44
18.75
18.21
16.53
12.36
4.89
-5.83
-18.6
-31.18
-40.64
-43.85
-38.27
-22.74
1.66
31.43
61.11
84.76
97.87
98.92
89.87
75.21
60.08
48.34
41.37
38.3
37.01
35.52
32.83
29.07
25.07
21.88
20.41
21.34
25.07
31.56
40.08
49.06
56.46
60.36
59.59
54.2
45.36
34.74
23.95
14.14
5.97
-0.08
-3.58
-4.15
-1.72
3.14
9.38
15.74
21.23
25.35
27.98
29.02
28.07
24.32
16.77
4.74
-11.69
-31.31
-51.76
-69.87
-82.26
-86.17
-80.2
-64.96
-43.12
-18.92
2.79
17.89
24.02
21.12
11.16
-2.67
-17.17
-30.02
-40.1
-47.31
-52.04
-54.72
-55.68
-55.3
-54.15
-53.03
-52.77
-53.9
-56.43
-59.88
-63.44
-66.38
-68.3
-69.21
-69.42
-69.34
-69.17
-68.82
-68.0
-66.41
-64.03
-61.07
-57.96
-55.06
-52.43
-49.75
-46.55
-42.4
-37.18
-31.09
-24.66
-18.49
-13.17
-9.2
-6.88
-6.38
-7.63
-10.29
-13.72
-17.13
-19.77
-21.11
-20.99
-19.65
-17.58
-15.34
-13.38
-11.98
-11.24
-11.13
-11.61
-12.6
-14.07
-15.99
-18.36
-21.18
-24.39
-27.94
-31.73
-35.61
-39.35
-42.62
-44.98
-45.99
-45.37
-43.14
-39.71
-35.73
-32.03
-29.27
-27.83
-27.73
-28.78
-30.77
-33.61
-37.34
-41.98
-47.39
-53.1
-58.34
-62.24
-64.08
-63.63
-61.19
-57.6
-53.92
-51.14
-49.94
-50.43
-52.16
-54.24
-55.53
-55.13
-52.69
-48.69
-44.36
-41.28
-40.93
-44.13
-50.78
-59.78
-69.26
-76.9
-80.44
-78.2
-69.48
-54.94
-36.44
-16.68
1.59
16.27
26.42
32.46
35.86
38.74
43.35
51.53
64.35
81.8
102.59
124.21
143.34
156.54
161.17
156.32
143.2
124.93
105.59
88.8
76.69
69.44
65.86
64.45
64.31
65.42
68.05
71.84
75.26
75.93
71.82
62.46
49.71
37.37
29.73
29.9
38.54
53.56
70.85
85.77
94.57
95.5
89.05
77.36
63.29
49.24
36.59
25.52
15.48
5.6
-4.82
-16.17
-28.63
-42.16
-56.48
-70.94
-84.5
-95.82
-103.68
-107.39
-106.97
-103.03
-96.42
-87.68
-76.87
-63.64
-47.8
-29.86
-11.4
5.18
17.17
22.4
19.92
10.21
-5.0
-23.16
-41.38
-56.95
-67.76
-72.8
-72.43
-68.36
-63.36
-60.36
-61.59
-67.9
-78.35
-90.34
-100.22
-104.24
-99.71
-85.94
-64.6
-39.25
-14.25
6.54
20.95
28.93
32.28
33.88
36.66
42.94
53.8
68.78
85.87
102.23
115.22
123.47
127.41
128.53
128.83
129.25
128.79
124.45
112.29
88.88
52.54
3.97
-54.34
-117.67
-180.11
-236.18
-282.28
-317.33
-342.35
-359.23
-369.41
-373.98
-372.26
-362.72
-344.47
-318.43
-287.04
-253.01
-218.08
-182.78
-148.03
-114.11
-81.25
-50.02
-21.66
2.45
21.5
35.59
52.7
73.63
93.77
107.22
111.69
108.21
99.06
86.41
71.96
57.63
43.45
29.76
17.35
8.37
4.01
4.05
7.44
13.8
20.65
26.76
32.46
38.82
49.67
67.06
89.9
114.43
136.59
153.95
166.04
174.33
180.74
191.41
209.85
234.79
260.98
282.89
297.86
306.8
313.01
319.72
335.19
364.07
404.97
451.28
495.26
531.31
556.27
568.47
533.74
437.91
294.95
141.86
13.48
-76.32
-134.31
-176.99
-214.44
-256.11
-295.95
-323.57
-332.4
-323.54
-303.37
-278.5
-253.07
-228.58
-205.89
-180.77
-151.41
-120.14
-92.2
-71.77
-59.44
-52.88
-49.44
-48.5
-47.69
-45.94
-43.36
-40.8
-38.89
-37.63
-36.69
-35.85
-35.3
-33.21
-28.17
-20.3
-11.47
-4.09
0.26
1.79
1.92
2.07
3.72
7.07
11.16
14.54
16.13
15.74
14.2
12.3
10.07
6.97
2.47
-3.39
-9.93
-16.08
-20.91
-22.79
-20.78
-15.08
-7.04
1.54
9.02
14.24
16.49
15.59
13.69
13.38
16.57
23.79
34.49
47.51
61.35
74.32
85.08
95.28
107.16
122.2
140.29
160.42
181.61
203.18
224.55
231.19
213.4
170.95
113.69
54.02
0.61
-42.16
-72.41
-89.92
-96.17
-92.14
-80.35
-64.81
-49.93
-38.22
-30.3
-25.09
-21.09
-17.39
-12.37
-5.48
2.56
10.27
16.46
20.92
24.32
27.45
30.59
35.21
41.89
50.07
58.16
64.51
68.09
68.75
66.93
63.25
58.96
55.09
52.33
50.83
50.26
49.81
48.34
44.59
37.59
27.3
14.27
-0.6
-16.58
-33.38
-51.07
-69.8
-89.33
-108.81
-126.82
-141.78
-152.31
-157.58
-157.55
-152.85
-144.62
-134.18
-122.82
-111.62
-101.49
-93.14
-87.2
-84.24
-84.68
-88.56
-95.32
-103.7
-112.0
-118.52
-122.18
-122.95
-121.95
-121.06
-122.25
-126.81
-134.85
-145.17
-155.69
-164.03
-168.3
-167.69
-162.81
-155.47
-148.23
-143.48
-142.61
-145.53
-150.62
-155.35
-157.05
-153.7
-144.33
-129.06
-108.88
-85.45
-60.74
-36.67
-14.56
5.26
23.74
42.69
64.05
88.95
117.07
146.63
174.83
198.78
216.26
226.24
228.99
225.99
219.66
213.01
209.08
210.39
218.25
232.24
250.08
267.98
281.48
286.6
281.03
264.69
239.77
209.95
179.28
151.07
127.21
108.04
92.76
80.15
69.15
59.24
50.35
42.53
35.7
29.46
23.33
17.09
11.0
5.68
1.77
-0.48
-1.41
-1.64
-1.66
-1.44
-0.64
0.87
2.43
2.24
-2.29
-13.7
-33.36
-60.87
-93.85
-128.62
-161.25
-188.64
-209.3
-223.45
-232.75
-239.6
-246.43
-255.17
-266.8
-281.13
-296.74
-311.05
-320.95
-323.67
-317.67
-303.2
-282.11
-256.95
-229.94
-202.09
-173.28
-142.83
-110.61
-77.65
-46.21
-19.06
1.46
14.3
19.93
19.88
15.95
9.45
0.98
-9.28
-21.02
-33.13
-43.73
-50.65
-52.29
-48.25
-39.47
-27.71
-14.71
-1.47
12.16
27.15
44.71
65.41
88.73
112.93
135.48
153.91
166.45
172.66
173.31
169.99
164.52
158.35
152.3
146.52
140.83
134.96
128.84
122.57
116.3
110.19
104.27
98.41
92.47
86.3
79.95
73.6
67.42
61.32
54.67
46.47
35.8
22.36
6.9
-9.17
-24.43
-38.23
-50.83
-62.72
-73.73
-82.41
-86.37
-83.52
-73.37
-57.59
-39.3
-21.74
-7.0
4.46
13.16
19.84
24.84
28.21
30.14
31.25
32.55
34.84
38.46
43.0
47.57
51.27
53.68
54.82
55.0
54.52
53.72
53.03
52.73
52.86
53.1
53.08
52.52
51.35
49.85
48.51
48.12
49.08
51.17
53.51
55.35
56.12
55.5
53.69
51.59
51.68
56.51
67.69
84.53
104.76
123.97
136.42
136.87
122.93
97.97
68.39
41.32
21.85
14.56
21.41
41.16
69.32
98.73
123.14
135.13
128.3
99.58
56.29
13.02
-13.66
-11.85
21.46
82.49
158.46
231.97
285.49
312.12
313.49
296.28
268.02
214.95
136.47
45.32
-27.29
-79.97
-118.47
-151.3
-182.84
-215.71
-249.85
-278.99
-296.54
-298.66
-287.21
-264.11
-233.16
-199.67
-169.29
-145.76
-127.83
-113.49
-101.76
-94.37
-90.47
-88.57
-87.33
-86.3
-85.55
-83.78
-80.5
-76.39
-73.58
-72.18
-71.52
-70.82
-69.84
-68.67
-66.85
-64.47
-62.28
-61.74
-63.24
-66.5
-70.91
-75.88
-80.86
-85.07
-87.95
-89.21
-88.8
-86.39
-81.62
-74.35
-64.89
-53.92
-42.34
-31.14
-21.16
-12.96
-6.84
-2.8
-0.58
0.24
0.26
0.11
0.34
1.26
2.9
4.95
7.02
8.73
9.89
10.45
10.43
9.76
8.23
5.64
1.99
-2.35
-6.71
-10.32
-12.6
-13.45
-13.28
-12.77
-12.65
-13.36
-14.93
-16.97
-18.78
-19.48
-18.26
-14.57
-8.26
0.32
10.36
20.86
30.87
39.73
47.19
53.29
58.21
62.13
65.18
67.42
68.9
69.64
69.58
68.61
66.54
63.21
58.64
53.08
47.02
41.1
35.92
31.87
29.04
27.25
26.1
25.12
23.99
22.52
20.7
18.55
16.12
13.3
9.88
5.57
0.13
-6.57
-14.37
-22.71
-30.62
-36.83
-40.08
-39.53
-35.02
-27.2
-17.33
-6.82
3.18
11.99
19.47
25.74
30.98
35.22
38.35
40.22
40.86
40.5
39.59
38.59
37.8
37.24
36.69
35.82
34.46
32.66
30.66
28.79
27.25
25.99
24.73
23.1
20.77
17.56
13.54
8.94
4.06
-0.76
-5.33
-9.5
-13.31
-16.91
-20.61
-24.75
-29.69
-35.61
-42.34
-49.21
-55.11
-58.71
-58.87
-55.01
-47.36
-36.93
-25.2
-13.64
-3.35
5.22
12.12
17.76
22.53
26.66
30.16
32.91
34.82
35.93
36.39
36.39
36.0
35.2
33.96
32.35
30.61
29.12
28.2
27.96
28.18
28.4
28.09
26.86
24.61
21.52
17.97
14.31
10.74
7.29
3.83
0.17
-3.8
-8.08
-12.54
-16.96
-21.13
-24.9
-28.32
-31.6
-35.13
-39.34
-44.51
-50.51
-56.71
-62.02
-65.13
-64.97
-61.03
-53.56
-43.48
-32.04
-20.46
-9.63
-0.02
8.22
15.18
20.96
25.65
29.33
32.08
34.07
35.49
36.49
37.18
37.56
37.53
37.04
36.11
34.87
33.55
32.39
31.5
30.84
30.2
29.29
27.87
25.78
23.05
19.84
16.33
12.69
8.96
5.1
1.04
-3.28
-7.85
-12.51
-17.05
-21.19
-24.76
-27.84
-30.69
-33.75
-37.46
-42.07
-47.39
-52.8
-57.2
-59.36
-58.26
-53.42
-45.05
-34.03
-21.61
-8.99
2.88
13.6
23.14
31.61
39.08
45.53
50.83
54.94
57.99
60.32
62.48
64.87
67.62
70.54
73.27
75.42
76.8
77.56
78.19
79.53
82.14
85.98
90.36
94.22
96.39
95.84
91.77
83.59
71.19
54.73
35.09
14.33
-4.59
-18.75
-26.63
-28.78
-27.46
-25.24
-24.33
-25.84
-29.66
-34.89
-40.61
-46.21
-51.24
-56.98
-62.37
-65.32
-64.56
-61.04
-57.23
-55.59
-56.98
-60.88
-65.35
-67.41
-64.8
-56.97
-45.13
-31.24
-18.26
-9.48
-7.54
-13.42
-24.49
-35.97
-43.55
-45.4
-42.24
-36.23
-29.81
-24.74
-21.89
-20.88
-20.87
-21.1
-20.74
-19.7
-17.02
-12.58
-7.36
-3.54
-2.92
-6.24
-13.04
-21.61
-29.86
-36.03
-39.84
-39.57
-36.57
-32.63
-28.89
-26.17
-24.64
-23.81
-21.78
-15.88
-4.73
12.14
32.36
50.61
59.35
52.4
28.09
-8.55
-47.58
-77.98
-91.98
-87.35
-63.95
-27.59
15.11
54.09
81.1
93.14
92.06
81.3
64.05
43.51
23.53
6.38
-6.07
-13.14
-16.39
-19.19
-25.42
-37.8
-55.6
-75.53
-92.6
-103.06
-105.98
-103.16
-97.15
-90.17
-83.68
-78.56
-76.23
-78.32
-85.95
-100.25
-121.75
-148.72
-177.0
-200.83
-214.35
-213.65
-196.36
-163.85
-119.11
-69.57
-22.48
17.79
50.3
76.56
99.09
122.45
149.11
178.59
208.46
237.14
264.7
291.68
317.84
341.76
364.83
387.46
408.43
425.23
435.76
438.9
433.47
417.85
369.97
284.03
174.08
66.1
-19.49
-76.4
-108.35
-122.53
-127.21
-127.32
-122.42
-112.68
-100.65
-90.68
-86.68
-89.66
-98.48
-111.41
-127.11
-142.34
-155.07
-165.18
-173.97
-183.29
-192.46
-198.5
-197.56
-186.84
-164.29
-131.17
-92.09
-47.31
-2.44
37.08
70.48
101.79
134.62
169.66
203.38
229.42
241.87
237.15
216.75
183.35
143.45
103.49
67.63
37.15
11.02
-12.54
-35.21
-56.63
-75.19
-89.31
-99.6
-109.08
-120.79
-136.4
-155.44
-176.33
-196.43
-213.49
-226.33
-235.91
-245.58
-258.01
-274.23
-293.09
-312.38
-329.07
-340.04
-342.4
-334.5
-317.32
-292.03
-259.81
-221.45
-178.68
-133.94
-90.18
-49.7
-6.79
36.68
74.97
102.89
120.41
130.23
136.38
140.87
144.41
147.94
152.14
159.6
171.08
188.26
209.91
231.3
245.75
248.0
236.75
214.11
186.09
160.21
144.47
142.93
154.55
174.31
195.96
214.02
223.85
223.02
201.75
158.05
99.48
39.56
-10.8
-47.77
-72.81
-89.29
-99.27
-103.27
-100.07
-90.19
-77.04
-65.71
-60.36
-62.42
-70.99
-82.88
-93.23
-95.74
-85.11
-59.13
-20.09
25.26
68.57
100.1
112.64
104.21
78.69
43.75
7.57
-24.27
-50.03
-70.35
-87.54
-101.26
-107.91
-103.21
-84.75
-54.13
-16.89
20.0
52.28
76.87
93.52
108.89
126.05
142.1
149.96
142.18
110.8
56.4
-15.07
-91.49
-158.65
-205.78
-227.37
-223.19
-197.02
-155.24
-97.16
-34.15
17.69
47.44
53.94
42.91
21.78
-3.01
-26.88
-46.63
-63.69
-77.12
-85.09
-86.77
-82.96
-75.95
-68.53
-63.24
-61.34
-63.88
-67.82
-69.96
-67.89
-61.12
-50.9
-39.25
-27.98
-18.1
-10.39
-4.1
2.01
9.13
17.53
26.53
34.88
41.26
44.66
44.37
40.83
34.89
27.9
20.63
13.11
4.88
-4.44
-15.13
-27.08
-39.89
-53.03
-64.69
-73.2
-77.48
-77.18
-72.53
-64.67
-54.88
-44.9
-36.54
-28.99
-21.47
-14.08
-7.65
-2.61
1.03
5.18
11.89
22.79
41.94
71.27
109.29
152.12
196.13
238.13
277.63
313.89
345.28
373.51
398.67
418.71
430.77
433.84
428.12
417.14
403.83
363.53
287.15
184.96
79.22
-12.51
-76.87
-124.08
-162.06
-194.94
-224.16
-245.42
-254.63
-251.59
-240.1
-225.32
-213.18
-206.04
-204.85
-206.98
-205.84
-196.31
-177.54
-152.64
-125.78
-100.99
-79.15
-60.38
-44.07
-28.48
-13.1
1.06
12.73
22.01
30.29
39.55
52.18
66.53
79.47
86.52
84.4
73.37
57.24
41.14
29.63
24.66
24.96
27.95
31.71
35.31
38.7
42.12
45.37
47.83
48.64
47.47
44.68
41.51
39.61
40.28
43.65
48.38
52.07
52.29
47.47
37.64
24.44
10.34
-2.4
-12.58
-20.42
-27.08
-33.97
-42.12
-51.86
-62.75
-73.95
-84.55
-93.87
-101.56
-107.55
-111.91
-114.83
-116.6
-117.57
-118.23
-119.03
-120.25
-121.77
-123.12
-123.54
-122.36
-119.24
-114.25
-107.77
-100.12
-91.46
-81.7
-70.71
-58.58
-45.77
-33.02
-21.14
-10.73
-2.01
5.16
11.09
16.07
20.2
23.43
25.6
26.61
26.54
25.6
24.15
22.51
20.87
19.29
17.68
15.84
13.61
10.78
7.22
2.89
-2.04
-7.17
-11.83
-15.18
-16.44
-15.06
-10.95
-4.48
3.54
12.13
20.31
27.43
33.13
37.37
40.27
42.02
42.75
42.61
41.79
40.43
38.67
36.51
33.92
30.88
27.52
24.15
21.12
18.72
17.03
15.89
14.97
13.94
12.56
10.7
8.35
5.58
2.46
-0.91
-4.38
-7.79
-11.0
-13.93
-16.56
-18.99
-21.41
-24.1
-27.41
-31.6
-36.72
-42.45
-48.05
-52.48
-54.67
-53.85
-49.73
-42.64
-33.36
-22.89
-12.17
-1.89
7.53
15.9
23.15
29.24
34.15
37.87
40.43
41.93
42.49
42.27
41.46
40.27
38.87
37.41
36.02
34.79
33.77
32.97
32.3
31.58
30.54
28.89
26.46
23.3
19.68
15.97
12.49
9.36
6.43
3.47
0.23
-3.29
-6.93
-10.43
-13.6
-16.46
-19.25
-22.34
-26.09
-30.74
-36.34
-42.71
-49.42
-55.69
-60.54
-62.92
-62.01
-57.51
-49.81
-39.87
-28.93
-18.12
-8.18
0.66
8.44
15.3
21.32
26.43
30.54
33.66
35.9
37.48
38.62
39.43
39.94
40.16
40.12
39.96
39.92
40.23
41.02
42.21
43.53
44.51
44.67
43.71
41.54
38.41
34.69
30.81
27.02
23.38
19.79
16.08
12.11
7.87
3.41
-1.17
-5.77
-10.34
-14.79
-19.02
-23.0
-26.75
-30.45
-34.38
-38.77
-43.65
-48.65
-53.03
-55.75
-55.85
-52.7
-46.26
-37.1
-26.27
-14.95
-4.19
5.32
13.27
19.67
24.68
28.49
31.28
33.14
34.17
34.49
34.22
33.54
32.61
31.56
30.49
29.48
28.6
27.91
27.46
27.24
27.16
27.01
26.55
25.56
23.93
21.75
19.23
16.66
14.25
12.05
9.95
7.75
5.21
2.13
-1.5
-5.56
-9.75
-13.74
-17.22
-20.09
-22.48
-24.71
-27.23
-30.46
-34.63
-39.65
-45.05
-49.94
-53.21
-53.78
-50.93
-44.57
-35.32
-24.33
-12.9
-2.15
7.24
15.03
21.28
26.14
29.75
32.24
33.8
34.62
34.97
35.06
34.96
34.64
34.03
33.03
31.65
29.99
28.23
26.56
25.1
23.92
22.96
22.04
20.92
19.36
17.21
14.51
11.43
8.21
5.09
2.18
-0.62
-3.53
-6.74
-10.31
-14.03
-17.58
-20.64
-23.08
-24.99
-26.76
-28.84
-31.67
-35.52
-40.45
-46.21
-52.28
-57.77
-61.68
-63.04
-61.36
-56.7
-49.76
-41.56
-33.19
-25.45
-18.53
-12.32
-6.66
-1.63
2.55
5.61
7.48
8.32
8.38
8.28
8.5
9.19
10.12
10.94
11.43
11.59
11.53
11.33
11.56
12.68
14.77
17.3
19.54
20.83
20.81
19.49
17.28
15.74
16.58
20.99
28.91
39.5
51.53
64.0
76.32
84.14
84.4
76.56
63.29
48.4
34.98
24.52
17.37
13.18
11.24
11.24
12.8
16.73
22.02
27.97
34.4
41.05
46.69
49.07
46.11
36.57
20.59
-0.63
-24.94
-50.5
-74.58
-94.99
-110.08
-118.26
-118.34
-110.11
-95.2
-76.69
-58.42
-43.7
-34.43
-30.55
-30.24
-31.03
-30.95
-29.26
-26.16
-22.36
-18.55
-15.17
-12.26
-9.54
-6.73
-3.86
-1.3
0.49
1.27
1.16
0.41
-0.78
-2.43
-4.83
-8.25
-12.72
-17.68
-22.09
-24.71
-24.68
-21.8
-16.64
-10.21
-3.67
2.15
6.86
10.51
13.33
15.51
17.13
18.14
18.51
18.25
17.45
16.25
14.81
13.2
11.45
9.58
7.59
5.55
3.58
1.87
0.62
-0.04
-0.11
0.21
0.58
0.6
0.02
-1.14
-2.55
-3.67
-3.92
-2.96
-0.74
2.45
6.12
9.77
13.14
16.25
19.27
22.36
25.43
28.14
29.95
30.44
29.43
27.13
24.1
21.13
19.04
18.65
20.56
25.14
32.41
41.99
53.13
64.88
76.29
86.59
95.33
102.39
107.84
111.92
114.92
117.12
118.73
119.89
120.61
120.71
119.85
117.57
113.37
106.78
97.57
85.81
71.94
56.74
41.2
26.36
13.04
1.72
-7.5
-14.86
-20.72
-25.42
-29.26
-32.45
-35.24
-37.89
-40.69
-43.83
-47.36
-51.15
-54.97
-58.64
-62.04
-65.15
-68.01
-70.63
-73.05
-75.33
-77.61
-80.08
-82.88
-85.97
-89.03
-91.53
-92.8
-92.2
-89.29
-83.89
-76.17
-66.63
-55.96
-44.95
-34.33
-24.63
-16.14
-8.89
-2.86
2.03
5.81
8.5
10.19
11.09
11.52
11.81
12.24
12.89
13.73
14.62
15.47
16.25
17.01
17.82
18.7
19.52
20.04
19.93
18.96
16.98
14.07
10.48
6.6
2.84
-0.54
-3.45
-6.05
-8.6
-11.33
-14.36
-17.64
-20.98
-24.2
-27.17
-29.91
-32.59
-35.46
-38.78
-42.75
-47.43
-52.59
-57.73
-62.07
-64.71
-64.88
-62.13
-56.53
-48.61
-39.22
-29.33
-19.77
-11.07
-3.46
3.09
8.66
13.31
17.02
19.76
21.57
22.61
23.15
23.45
23.62
23.65
23.42
22.85
21.95
20.89
19.9
19.13
18.59
18.07
17.25
15.87
13.8
11.17
8.27
5.46
2.99
0.91
-0.94
-2.81
-4.91
-7.37
-10.13
-13.05
-15.97
-18.77
-21.38
-23.78
-26.03
-28.24
-30.61
-33.4
-36.88
-41.17
-46.09
-51.06
-55.16
-57.34
-56.65
-52.68
-45.62
-36.34
-26.02
-15.88
-6.83
0.71
6.7
11.34
14.85
17.41
19.11
20.06
20.44
20.45
20.3
20.1
19.86
19.44
18.7
17.58
16.16
14.65
13.3
12.3
11.67
11.25
10.76
9.88
8.41
6.26
3.54
0.45
-2.74
-5.8
-8.63
-11.22
-13.67
-16.18
-18.89
-21.92
-25.4
-29.38
-33.89
-38.78
-43.59
-47.55
-49.76
-49.37
-46.01
-39.88
-31.75
-22.68
-13.72
-5.63
1.15
6.46
10.29
12.66
13.61
13.22
11.6
8.93
5.4
1.2
-3.45
-8.32
-13.23
-18.02
-22.64
-27.15
-31.76
-36.78
-42.59
-49.58
-58.06
-68.15
-79.7
-92.22
-105.1
-117.72
-129.72
-141.09
-152.06
-162.74
-172.88
-181.56
-187.24
-188.09
-182.61
-170.22
-151.7
-129.2
-105.73
-84.29
-67.06
-54.72
-46.54
-40.91
-36.14
-31.14
-25.73
-20.34
-15.58
-11.73
-8.69
-6.0
-3.08
0.83
6.79
16.05
29.67
47.77
68.94
90.16
107.65
118.2
120.39
115.07
104.78
92.6
80.93
70.99
62.92
56.46
51.41
47.87
45.98
45.54
45.97
46.42
46.18
45.05
43.34
41.79
41.13
41.78
43.63
46.11
48.46
49.99
50.31
49.4
47.48
44.84
41.61
37.76
33.18
27.84
22.05
16.61
12.77
11.81
14.58
21.05
30.26
40.69
50.8
59.53
66.55
72.16
76.92
81.23
85.11
88.25
90.35
91.18
90.72
89.16
86.91
84.4
82.04
79.97
78.15
76.73
75.72
74.9
74.0
72.79
71.2
69.19
66.7
63.66
60.82
58.69
57.23
55.88
53.95
50.92
46.56
40.91
34.35
28.74
25.67
25.73
28.54
33.24
39.06
45.2
50.81
55.07
58.89
62.96
67.22
70.93
73.42
74.51
74.34
73.16
62.24
38.39
5.04
-30.18
-61.08
-85.42
-103.57
-116.45
-124.59
-128.35
-126.85
-119.94
-109.3
-97.92
-88.69
-83.16
-81.56
-83.12
-85.96
-86.81
-82.99
-73.42
-58.43
-39.09
-16.89
5.85
24.37
32.86
28.26
12.27
-9.12
-28.56
-40.21
-41.72
-34.69
-23.89
-13.66
-6.62
-3.71
-4.51
-7.54
-10.11
-8.63
0.51
19.7
48.63
82.93
114.55
133.71
132.66
108.98
66.62
14.45
-36.87
-77.84
-102.29
-107.91
-96.26
-71.44
-39.2
-6.08
21.61
39.11
44.96
41.29
32.86
24.47
19.75
20.19
24.86
31.15
35.7
35.96
31.01
21.43
8.3
-6.42
-20.32
-31.07
-37.07
-37.63
-31.98
-19.11
5.14
40.05
78.99
112.46
133.14
139.47
132.07
112.0
80.94
41.13
-4.01
-48.44
-84.79
-106.44
-110.1
-97.41
-74.12
-47.93
-25.99
-13.17
-10.41
-15.28
-23.59
-31.42
-36.53
-37.95
-35.34
-28.49
-17.72
-3.74
12.01
27.38
39.9
47.48
49.4
46.53
40.62
33.53
26.84
21.47
17.75
15.54
14.4
13.75
12.99
11.38
8.53
4.67
0.57
-2.93
-5.48
-7.34
-9.14
-11.28
-13.85
-15.97
-16.09
-13.02
-6.78
1.26
9.14
15.31
19.26
20.51
19.81
18.85
19.18
21.13
23.83
25.9
26.26
24.55
18.67
8.47
-3.69
-14.39
-21.54
-25.49
-28.64
-34.4
-45.75
-67.87
-101.22
-140.46
-177.17
-205.0
-222.45
-232.67
-241.49
-254.92
-281.5
-323.15
-373.36
-420.46
-453.96
-468.17
-462.57
-440.42
-375.24
-264.23
-130.04
-4.85
92.43
160.06
204.3
231.87
247.53
254.53
251.05
238.93
223.51
211.09
204.42
201.29
196.66
185.74
165.01
133.23
95.33
60.47
37.62
30.58
37.08
51.55
68.38
83.66
93.33
96.49
94.03
87.85
79.37
69.44
58.68
47.51
35.77
21.99
5.43
-12.74
-29.24
-39.91
-41.23
-31.37
-10.3
18.83
50.04
76.6
93.18
97.37
89.8
73.51
53.12
33.85
20.54
17.05
25.32
44.59
71.14
98.79
120.4
130.01
124.84
106.11
78.5
48.29
21.36
1.75
-8.99
-11.81
-9.6
-6.22
-5.18
-8.05
-13.63
-18.35
-18.27
-11.8
-1.49
6.56
5.66
-7.67
-31.34
-58.55
-81.51
-95.77
-102.59
-107.63
-117.06
-133.04
-152.15
-166.69
-168.64
-153.34
-121.72
-79.75
-36.1
1.03
26.84
40.46
44.1
41.19
35.22
28.79
23.63
20.9
21.41
26.27
35.45
46.4
53.95
53.02
41.64
22.88
3.65
-8.58
-8.46
4.64
26.93
52.44
76.56
97.14
113.41
123.75
120.07
96.6
55.25
6.23
-38.41
-70.44
-89.4
-98.83
-102.63
-103.91
-103.63
-101.7
-95.98
-86.64
-74.52
-60.56
-45.3
-29.53
-14.53
-1.09
10.41
19.9
27.13
32.33
36.01
38.65
40.24
40.31
38.94
36.83
35.02
34.27
35.08
37.62
41.78
47.06
52.66
57.69
60.94
60.72
55.14
43.18
25.46
4.55
-15.89
-32.49
-43.32
-48.61
-50.3
-50.99
-52.51
-55.45
-59.54
-64.38
-69.87
-76.11
-82.64
-88.06
-90.21
-87.12
-78.12
-64.39
-48.8
-34.62
-24.31
-18.53
-16.15
-14.98
-12.7
-7.66
0.74
12.05
25.24
39.1
52.62
65.06
75.84
84.26
89.59
91.12
88.66
82.85
75.22
67.89
62.79
60.99
62.23
65.09
67.65
68.23
65.99
61.38
55.91
51.73
50.76
53.97
61.1
70.61
80.41
88.29
92.5
92.09
87.15
79.0
70.14
63.77
62.67
68.16
79.21
92.81
105.17
113.17
115.63
113.48
108.77
103.41
97.96
90.93
79.97
63.09
39.75
11.32
-19.47
-49.37
-75.92
-98.05
-116.95
-134.27
-150.7
-165.75
-178.0
-186.14
-189.79
-189.72
-187.38
-185.58
-186.03
-188.99
-194.03
-200.44
-207.82
-215.89
-223.82
-229.63
-232.29
-229.93
-221.06
-206.11
-187.08
-167.39
-150.5
-138.7
-122.21
-96.18
-61.17
-23.3
9.78
34.1
48.95
55.1
53.78
47.17
36.96
26.46
21.28
25.75
42.13
69.01
101.62
133.63
160.38
173.56
171.32
162.43
152.37
145.99
147.29
159.43
180.9
209.56
240.42
267.8
285.67
287.97
271.63
237.74
192.16
144.9
108.19
91.4
98.14
123.67
155.48
179.16
183.58
164.63
125.62
75.06
21.97
-26.61
-67.03
-98.79
-122.07
-137.03
-144.14
-144.74
-141.31
-137.18
-135.11
-136.43
-140.71
-145.85
-149.18
-148.87
-144.67
-137.87
-130.79
-125.65
-123.63
-124.56
-126.78
-128.1
-126.57
-121.33
-112.71
-102.11
-91.24
-81.43
-73.17
-66.07
-59.51
-52.76
-45.33
-37.0
-27.95
-18.5
-9.07
0.04
8.68
16.11
21.66
24.89
25.77
24.7
22.42
19.78
17.59
16.36
15.14
12.75
8.37
1.93
-5.91
-14.24
-22.21
-29.23
-34.91
-40.36
-46.34
-52.56
-57.74
-60.46
-60.21
-58.12
-56.45
-51.89
-43.88
-33.7
-24.1
-17.38
-13.81
-11.49
-7.2
0.51
15.25
37.29
64.12
91.14
113.12
125.97
128.18
118.69
99.58
75.24
49.45
25.29
4.7
-11.35
-22.37
-27.79
-27.32
-21.02
-9.72
4.0
17.2
27.59
33.33
33.47
29.39
24.7
23.32
26.95
33.86
40.42
43.03
41.56
36.52
29.8
23.5
18.86
15.74
12.82
8.72
2.87
-5.76
-16.6
-28.25
-39.47
-49.51
-58.08
-65.08
-70.3
-73.65
-75.35
-76.03
-76.55
-77.75
-80.16
-83.71
-87.53
-90.23
-90.31
-86.68
-78.87
-67.18
-52.57
-36.45
-20.18
-4.69
9.74
23.37
36.78
50.54
64.94
79.76
94.23
107.13
117.1
123.02
124.5
122.13
117.39
112.24
108.32
106.39
106.16
106.59
106.51
105.1
102.2
98.11
93.41
88.72
84.58
81.38
79.25
77.99
77.21
76.72
77.0
79.05
83.76
91.05
99.2
105.04
104.95
96.04
77.61
51.43
21.05
-9.7
-37.52
-60.05
-75.77
-83.43
-83.38
-75.63
-61.48
-43.71
-25.87
-11.62
-4.18
-5.63
-15.72
-31.06
-48.59
-64.7
-76.36
-82.47
-83.93
-83.33
-83.8
-84.15
-83.72
-81.73
-77.34
-70.15
-60.87
-52.72
-47.55
-46.92
-51.24
-60.17
-72.38
-86.18
-97.69
-104.1
-99.54
-81.14
-51.66
-18.36
10.64
30.57
41.14
45.47
47.6
50.63
54.98
58.53
58.1
50.92
36.1
15.26
-7.8
-28.26
-42.64
-49.78
-50.55
-46.99
-41.12
-34.03
-25.82
-16.1
-4.58
8.31
21.25
32.74
41.99
49.05
54.52
59.03
60.56
57.68
50.05
38.48
24.58
10.32
-2.61
-13.0
-20.07
-23.44
-22.95
-19.0
-13.06
-7.2
-3.45
-3.49
-8.04
-16.34
-26.11
-34.23
-36.88
-31.39
-16.95
5.41
32.43
59.72
83.27
100.75
112.2
119.72
126.33
135.08
148.54
166.86
187.78
207.3
221.04
225.8
220.54
205.91
180.58
147.24
109.24
69.37
29.52
-8.78
-43.73
-72.99
-94.94
-108.13
-111.56
-106.53
-96.6
-86.91
-82.92
-89.22
-108.42
-141.81
-187.18
-239.2
-291.92
-340.27
-380.48
-409.47
-424.48
-423.09
-405.48
-372.62
-326.62
-271.52
-212.53
-154.47
-100.34
-51.48
0.1
51.77
94.71
120.93
129.2
124.94
116.19
109.89
109.67
115.54
123.62
130.48
134.4
134.97
132.14
125.85
117.1
106.73
96.21
86.05
77.24
70.69
66.57
64.28
62.98
61.72
60.49
59.58
57.81
53.64
45.92
34.65
21.27
8.11
-2.21
-7.51
-6.73
-0.65
8.87
18.99
26.13
26.7
18.5
1.56
-20.41
-40.65
-51.91
-48.87
-30.27
0.63
37.06
70.5
93.42
101.44
93.81
73.05
44.46
14.72
-9.75
-21.86
-18.76
-2.08
22.73
49.15
69.9
78.65
71.92
50.73
20.74
-9.9
-33.22
-44.28
-43.02
-34.32
-24.24
-19.77
-25.48
-41.62
-64.84
-89.81
-111.32
-125.62
-131.53
-129.01
-118.74
-101.4
-78.07
-51.17
-24.6
-3.08
9.85
12.44
6.32
-3.42
-10.76
-10.79
-1.57
15.55
36.93
58.69
76.85
89.58
96.62
98.65
96.71
91.71
84.45
73.0
62.2
52.09
43.0
34.82
27.02
18.8
9.28
-2.16
-15.79
-30.79
-46.53
-61.26
-72.91
-79.81
-81.38
-78.45
-72.94
-67.06
-62.04
-58.51
-55.98
-53.48
-50.66
-48.02
-46.55
-47.01
-49.26
-52.01
-53.56
-52.76
-48.75
-41.6
-32.34
-22.71
-14.72
-10.08
-9.38
-11.34
-14.14
-14.69
-10.64
-1.74
9.95
20.9
27.92
29.46
26.69
20.74
13.98
8.27
4.88
4.86
9.33
19.17
29.6
44.01
58.76
71.67
81.92
89.87
96.4
102.03
106.55
109.31
110.92
112.12
116.51
127.47
145.25
165.59
180.71
182.75
167.15
135.43
93.4
51.54
19.89
4.29
5.21
18.69
39.12
60.71
78.72
82.36
64.74
27.45
-19.76
-65.5
-103.05
-130.32
-148.14
-158.03
-161.69
-159.32
-151.04
-140.18
-128.53
-118.21
-110.32
-104.74
-100.3
-95.77
-89.51
-80.77
-70.28
-59.7
-51.18
-45.05
-41.13
-38.64
-36.66
-34.04
-30.04
-24.76
-18.8
-13.21
-8.69
-5.64
-4.1
-3.86
-4.34
-4.82
-4.73
-3.65
-1.45
1.94
6.57
12.41
19.4
27.34
35.9
44.6
52.9
60.28
66.43
71.17
74.49
76.44
77.06
76.45
74.77
72.18
68.8
64.61
59.55
53.63
47.04
40.14
33.35
26.98
21.07
15.42
9.67
3.4
-3.67
-11.69
-20.6
-30.18
-40.01
-49.51
-58.04
-64.99
-69.98
-73.01
-74.43
-74.88
-75.15
-75.92
-77.67
-80.5
-84.1
-87.74
-90.49
-91.37
-89.59
-84.8
-77.1
-67.08
-55.57
-43.51
-31.73
-20.85
-11.19
-2.83
4.34
10.56
16.06
20.97
25.31
28.97
31.83
33.81
34.98
35.51
35.67
35.68
35.68
35.66
35.51
35.06
34.19
32.82
30.95
28.63
25.92
22.88
19.54
15.96
12.23
8.43
4.63
0.88
-2.8
-6.43
-10.0
-13.53
-17.05
-20.63
-24.37
-28.46
-33.07
-38.27
-43.85
-49.27
-53.67
-56.09
-55.72
-52.19
-45.74
-37.13
-27.43
-17.69
-8.58
-0.29
7.38
14.67
21.72
28.37
34.26
38.99
42.22
43.75
43.76
42.61
40.78
38.71
36.75
35.1
33.81
32.74
31.68
30.66
29.78
29.08
28.39
27.45
25.95
23.69
20.68
17.2
14.37
13.26
14.29
16.91
19.99
22.39
23.39
22.78
20.75
19.17
19.74
23.11
28.48
34.28
39.15
42.33
43.52
42.76
42.49
45.06
51.29
59.99
68.93
76.42
81.99
86.17
90.24
98.61
115.23
141.52
175.61
213.6
251.48
285.92
314.1
315.75
277.51
200.1
100.79
2.91
-76.32
-129.75
-158.39
-168.11
-166.63
-158.06
-144.59
-127.63
-109.07
-91.21
-76.05
-64.89
-58.51
-56.81
-56.5
-53.95
-47.17
-36.84
-25.44
-15.58
-9.01
-6.55
-8.65
-13.51
-18.94
-23.29
-25.98
-27.17
-27.06
-25.73
-23.53
-20.62
-16.2
-9.42
-0.03
11.17
22.59
32.66
40.48
45.72
49.0
51.75
55.09
59.23
63.17
64.98
62.17
55.37
44.61
30.63
14.76
-1.54
-17.21
-31.81
-45.43
-58.31
-70.41
-81.59
-91.18
-98.3
-102.36
-103.31
-101.6
-97.93
-93.04
-87.51
-82.25
-78.1
-75.75
-75.5
-76.9
-78.71
-79.25
-77.04
-71.4
-63.0
-53.29
-43.93
-36.07
-30.03
-25.35
-21.35
-17.53
-13.88
-10.88
-8.98
-8.3
-8.45
-8.74
-8.45
-7.26
-5.39
-3.39
-1.96
-1.43
-1.58
-1.78
-1.25
0.57
3.79
8.04
12.76
17.36
21.54
25.24
28.57
31.68
34.61
37.29
39.62
41.54
43.04
44.18
44.91
45.03
44.21
42.14
38.7
34.09
28.84
23.6
18.77
14.3
9.6
3.9
-3.35
-12.07
-21.36
-29.91
-36.45
-40.37
-41.87
-41.72
-40.75
-39.3
-37.11
-33.48
-27.76
-19.67
-9.28
3.32
18.11
35.05
53.58
72.24
88.81
100.93
107.08
107.17
102.45
94.85
86.04
76.97
67.94
59.08
50.75
43.6
38.07
34.1
31.01
27.93
24.35
20.44
16.89
14.4
13.17
12.63
11.66
9.02
3.9
-3.75
-13.26
-23.46
-33.19
-41.64
-48.59
-54.35
-59.46
-64.36
-69.11
-73.39
-76.68
-78.56
-79.03
-78.43
-77.35
-76.32
-75.63
-75.26
-74.99
-74.51
-73.55
-71.92
-69.55
-66.44
-62.69
-58.48
-54.05
-49.69
-45.65
-42.11
-39.09
-36.43
-33.82
-30.9
-27.31
-22.85
-17.51
-11.55
-5.42
0.25
4.89
8.09
9.76
10.14
9.76
9.25
9.18
9.91
11.47
13.72
16.26
18.73
20.74
22.01
22.39
21.9
20.65
18.85
16.72
14.52
12.45
10.75
9.58
9.03
9.06
9.52
10.08
10.44
10.3
9.43
7.69
4.97
1.29
-3.18
-8.06
-12.82
-16.85
-19.77
-21.49
-22.29
-22.74
-23.43
-24.82
-27.04
-29.87
-32.77
-35.09
-36.21
-35.76
-33.73
-30.45
-26.47
-22.41
-18.74
-15.7
-13.33
-11.58
-10.32
-9.47
-8.91
-8.5
-8.08
-7.55
-6.88
-6.15
-5.47
-4.93
-4.59
-4.48
-4.58
-4.89
-5.34
-5.84
-6.26
-6.45
-6.36
-6.02
-5.54
-5.03
-4.54
-4.03
-3.45
-2.79
-2.13
-1.56
-1.18
-1.03
-1.13
-1.58
-2.55
-4.26
-6.83
-10.08
-13.37
-15.73
-16.11
-13.84
-8.89
-1.97
5.69
12.83
18.54
22.54
25.09
26.67
27.73
28.48
28.94
29.07
28.95
28.76
28.7
28.86
29.13
29.28
29.06
28.38
27.38
26.4
25.87
26.04
26.82
27.84
28.51
28.32
27.11
25.1
22.72
20.38
18.24
16.18
13.94
11.26
8.09
4.58
0.95
-2.62
-5.99
-9.14
-12.1
-14.93
-17.71
-20.61
-23.8
-27.4
-31.38
-35.44
-39.05
-41.5
-42.12
-40.48
-36.52
-30.64
-23.57
-16.14
-9.13
-3.01
2.08
6.26
9.77
12.87
15.67
18.22
20.47
22.33
23.69
24.42
24.42
23.65
22.18
20.25
18.17
16.32
14.94
14.09
13.66
13.34
12.77
11.6
9.62
6.81
3.35
-0.41
-4.07
-7.3
-9.95
-12.1
-14.03
-16.15
-18.87
-22.47
-27.01
-32.21
-37.49
-42.11
-45.42
-47.1
-47.32
-46.65
-45.88
-45.62
-46.11
-47.03
-47.67
-47.16
-44.79
-40.16
-33.3
-24.66
-15.01
-5.23
3.86
11.67
17.97
22.8
26.4
29.06
30.89
31.9
32.0
31.23
29.83
28.26
27.05
26.58
26.9
27.74
28.64
29.26
29.46
29.42
29.48
29.91
30.74
31.75
32.54
32.78
32.38
31.5
30.43
29.43
28.49
27.42
25.87
23.65
20.79
17.62
14.56
11.86
9.53
7.29
4.8
1.84
-1.56
-5.15
-8.62
-11.78
-14.67
-17.54
-20.73
-24.54
-28.99
-33.78
-38.23
-41.48
-42.65
-41.26
-37.29
-31.28
-24.13
-16.78
-9.93
-3.88
1.38
6.04
10.25
14.04
17.37
20.12
22.28
23.9
25.1
26.0
26.66
27.07
27.17
26.93
26.39
25.63
24.79
24.0
23.33
22.78
22.28
21.66
20.73
19.33
17.47
15.27
12.98
10.81
8.87
7.13
5.42
3.64
1.73
-0.29
-2.33
-4.36
-6.37
-8.35
-10.25
-11.98
-13.5
-14.84
-16.13
-17.6
-19.42
-21.73
-24.52
-27.67
-30.83
-33.52
-35.2
-35.32
-33.58
-29.89
-24.53
-17.99
-10.87
-3.76
2.87
8.74
13.71
17.8
21.06
23.57
25.35
26.4
26.75
26.46
25.75
24.86
24.07
23.57
23.47
23.79
24.5
25.51
26.71
27.92
28.89
29.36
29.11
28.09
26.5
24.75
23.3
22.49
22.32
22.48
22.41
21.63
19.84
17.08
13.61
9.76
5.78
1.74
-2.4
-6.8
-11.61
-16.86
-22.4
-27.88
-32.69
-36.1
-37.56
-36.82
-34.08
-29.95
-25.15
-20.35
-15.9
-11.87
-8.18
-4.75
-1.56
1.29
3.72
5.72
7.4
8.86
10.17
11.3
12.15
12.72
13.07
13.45
14.06
15.0
16.14
17.14
17.58
17.11
15.6
13.2
10.24
7.09
4.06
1.26
-1.4
-4.1
-7.01
-10.14
-13.32
-16.24
-18.67
-20.52
-21.96
-23.32
-24.95
-27.18
-30.1
-33.7
-37.79
-42.01
-45.77
-48.37
-49.11
-47.57
-43.74
-38.17
-31.73
-25.31
-19.55
-14.66
-10.49
-6.7
-3.0
0.73
4.42
7.89
10.95
13.44
15.29
16.52
17.25
17.63
17.84
18.05
18.35
18.79
19.38
20.07
20.77
21.31
21.56
21.35
20.59
19.22
17.25
14.75
11.83
8.72
5.65
2.85
0.46
-1.55
-3.39
-5.27
-7.36
-9.63
-11.96
-14.21
-16.35
-18.47
-20.68
-23.07
-25.65
-28.41
-31.35
-34.51
-37.88
-41.22
-44.05
-45.69
-45.51
-43.2
-38.93
-33.33
-27.17
-21.16
-15.66
-10.71
-6.26
-2.25
1.21
3.97
5.97
7.35
8.41
9.51
10.82
12.3
13.7
14.79
15.42
15.62
15.54
15.32
14.99
14.51
13.78
12.78
11.53
10.13
8.68
7.28
5.96
4.72
3.49
2.17
0.62
-1.29
-3.57
-6.17
-8.97
-11.78
-14.5
-17.12
-19.75
-22.6
-25.87
-29.64
-33.84
-38.22
-42.53
-46.58
-50.43
-54.34
-58.72
-63.89
-69.86
-76.2
-82.08
-86.38
-88.02
-86.26
-80.87
-72.28
-61.39
-49.27
-36.93
-25.05
-13.91
-3.51
6.26
15.4
23.79
31.19
37.34
42.06
45.41
47.61
49.04
50.11
51.08
52.05
52.93
53.54
53.75
53.57
53.17
52.77
52.53
52.48
52.44
52.16
51.41
50.08
48.18
45.82
43.08
40.03
36.73
33.2
29.49
25.61
21.54
17.22
12.59
7.68
2.63
-2.29
-6.83
-10.84
-14.42
-17.89
-21.63
-25.87
-30.59
-35.37
-39.56
-42.44
-43.4
-42.09
-38.54
-33.05
-26.17
-18.52
-10.74
-3.33
3.34
9.11
13.96
17.95
21.2
23.81
25.85
27.38
28.41
28.98
29.1
28.81
28.17
27.27
26.23
25.21
24.31
23.67
23.3
23.21
23.35
23.6
23.89
24.11
24.22
24.24
24.19
24.07
23.84
23.41
22.68
21.62
20.27
18.77
17.25
15.74
14.08
12.06
9.46
6.27
2.73
-0.73
-3.71
-6.0
-7.77
-9.46
-11.65
-14.71
-18.67
-23.02
-26.96
-29.56
-30.09
-28.2
-24.02
-18.04
-11.0
-3.7
3.12
8.88
13.15
15.71
16.54
15.81
13.77
10.72
6.95
2.7
-1.77
-6.18
-10.27
-13.84
-16.81
-19.2
-21.07
-22.52
-23.63
-24.51
-25.3
-26.24
-27.57
-29.45
-31.95
-34.93
-38.12
-41.22
-44.06
-46.71
-49.52
-53.03
-57.75
-63.94
-71.38
-79.46
-87.34
-94.33
-100.18
-105.11
-109.69
-114.41
-119.39
-124.13
-127.65
-128.7
-126.18
-119.52
-108.76
-94.54
-77.89
-59.92
-41.49
-23.0
-4.25
15.38
36.61
59.71
84.12
108.32
130.19
147.68
159.46
165.25
165.74
162.1
155.44
146.73
136.91
127.41
120.26
117.94
122.61
135.36
155.52
180.61
206.65
229.1
243.75
247.72
240.08
222.01
196.39
166.93
137.12
109.37
84.56
62.29
41.48
21.11
0.65
-19.74
-39.51
-57.94
-74.41
-88.54
-100.16
-109.37
-116.4
-121.66
-125.67
-128.92
-131.86
-134.75
-137.68
-140.49
-142.87
-144.4
-144.75
-143.75
-141.54
-138.55
-135.37
-132.53
-130.31
-128.59
-126.95
-124.79
-121.62
-117.19
-111.57
-104.96
-97.56
-89.38
-80.17
-69.51
-56.96
-42.26
-25.5
-7.11
12.19
31.57
50.24
67.49
82.7
95.18
104.25
109.23
109.71
105.63
97.39
85.7
71.49
55.78
39.69
24.45
11.42
1.9
-3.11
-3.27
1.02
8.65
18.1
27.82
36.59
43.63
48.74
52.13
54.28
55.73
56.9
58.04
59.19
60.29
61.28
62.14
62.94
63.8
64.79
65.9
66.98
67.78
68.05
67.54
66.15
63.77
60.45
56.29
51.49
46.36
41.21
36.34
31.93
28.0
24.39
20.83
17.04
12.79
8.01
2.77
-2.68
-8.02
-12.96
-17.33
-21.19
-24.76
-28.34
-32.07
-35.79
-38.96
-40.81
-40.63
-38.05
-33.16
-26.48
-18.7
-10.52
-2.4
5.41
12.78
19.65
25.88
31.3
35.74
39.11
41.42
42.76
43.3
43.2
42.62
41.71
40.58
39.35
38.15
37.12
36.32
35.72
35.15
34.37
33.15
31.37
29.1
26.53
23.87
21.28
18.79
16.24
13.46
10.33
6.88
3.32
-0.14
-3.34
-6.27
-9.11
-12.17
-15.76
-20.14
-25.43
-31.47
-37.86
-43.9
-48.73
-51.5
-51.69
-49.23
-44.55
-38.38
-31.53
-24.66
-18.21
-12.44
-7.51
-3.57
-0.72
1.02
1.76
1.67
0.91
-0.38
-2.1
-4.19
-6.46
-8.71
-10.66
-12.09
-12.9
-13.04
-12.59
-11.65
-10.35
-8.74
-6.92
-4.94
-2.86
-0.73
1.41
3.54
5.63
7.61
9.35
10.7
11.5
11.71
11.35
10.56
9.54
8.39
7.06
5.37
3.02
-0.23
-4.43
-9.38
-14.71
-20.01
-25.02
-29.76
-34.5
-39.6
-45.32
-51.67
-58.33
-64.66
-69.82
-72.92
-73.29
-70.65
-65.2
-57.65
-48.93
-39.94
-31.3
-23.31
-15.97
-9.14
-2.69
3.42
9.19
14.56
19.43
23.67
27.09
29.52
30.9
31.28
30.87
29.88
28.52
26.92
25.13
23.22
21.27
19.31
17.34
15.3
13.09
10.61
7.74
4.47
0.82
-3.13
-7.25
-11.34
-15.1
-18.19
-20.34
-21.39
-21.36
-20.43
-18.92
-17.12
-15.3
-13.57
-11.94
-10.38
-8.96
-7.85
-7.33
-7.64
-8.83
-10.76
-13.11
-15.49
-17.56
-19.11
-19.99
-20.26
-20.06
-19.71
-19.6
-19.96
-20.62
-20.97
-20.04
-16.86
-10.86
-2.14
8.52
19.93
30.9
40.48
48.15
53.75
57.38
59.29
59.86
59.55
58.77
57.85
56.91
55.83
54.29
51.95
48.6
44.23
39.13
33.74
28.59
24.11
20.49
17.69
15.4
13.27
10.98
8.46
5.86
3.53
1.95
1.44
2.16
3.98
6.58
9.52
12.36
14.74
16.38
17.16
17.0
15.92
13.95
11.17
7.73
3.82
-0.31
-4.38
-8.16
-11.54
-14.58
-17.5
-20.57
-24.05
-28.05
-32.44
-36.88
-40.88
-43.87
-45.36
-45.01
-42.76
-38.84
-33.71
-27.94
-22.01
-16.22
-10.68
-5.37
-0.3
4.48
8.78
12.37
15.07
16.83
17.73
18.02
17.93
17.72
17.52
17.43
17.48
17.72
18.14
18.67
19.07
19.05
18.27
16.58
14.07
11.12
8.22
5.79
4.01
2.79
1.79
0.64
-0.91
-2.91
-5.19
-7.42
-9.36
-10.95
-12.36
-13.9
-15.8
-18.09
-20.52
-22.69
-24.3
-25.33
-26.09
-27.09
-28.85
-31.62
-35.3
-39.45
-43.35
-46.25
-47.5
-46.71
-43.87
-39.25
-33.37
-26.79
-20.02
-13.53
-7.7
-2.82
0.96
3.69
5.67
7.3
8.97
10.83
12.74
14.45
15.69
16.41
16.71
16.83
16.92
17.01
16.97
16.64
15.95
14.97
13.88
12.88
12.09
11.42
10.64
9.47
7.73
5.44
2.81
0.16
-2.23
-4.27
-6.07
-7.96
-10.32
-13.51
-17.81
-23.28
-29.75
-36.66
-43.17
-48.29
-51.15
-51.27
-48.76
-44.19
-38.43
-32.32
-26.45
-21.12
-16.36
-12.07
-8.13
-4.42
-0.86
2.64
6.12
9.59
13.01
16.26
19.17
21.6
23.46
24.82
25.8
26.51
26.99
27.17
26.85
25.85
24.15
21.82
19.04
15.89
12.33
8.17
3.28
-2.24
-7.97
-13.24
-17.4
-20.11
-21.48
-22.1
-22.77
-24.24
-27.07
-31.42
-37.28
-44.43
-52.52
-60.96
-68.85
-75.05
-78.46
-78.35
-74.73
-68.35
-60.47
-52.4
-45.07
-38.87
-33.66
-29.08
-24.79
-20.63
-16.57
-12.59
-8.56
-4.27
0.43
5.42
10.33
14.58
17.7
19.49
20.23
20.5
21.0
22.17
24.1
26.49
28.88
30.87
32.2
32.88
32.98
32.66
32.03
31.18
30.15
28.91
27.38
25.35
22.7
19.4
15.59
11.61
7.87
4.7
2.2
0.17
-1.89
-4.61
-8.55
-13.97
-20.64
-27.82
-34.41
-39.25
-41.49
-40.81
-37.48
-32.21
-25.8
-18.99
-12.27
-5.97
-0.24
4.83
9.21
12.97
16.19
18.94
21.28
23.18
24.6
25.57
26.19
26.65
27.12
27.75
28.64
29.83
31.34
33.11
34.95
36.59
37.71
38.04
37.49
36.16
34.28
32.15
30.0
27.99
26.12
24.32
22.47
20.42
18.02
15.13
11.64
7.5
2.77
-2.38
-7.63
-12.64
-17.13
-21.03
-24.57
-28.24
-32.6
-38.03
-44.47
-51.35
-57.63
-62.1
-63.8
-62.21
-57.55
-50.54
-42.26
-33.74
-25.71
-18.47
-11.96
-5.9
0.04
6.1
12.4
18.85
25.17
30.99
35.9
39.65
42.25
43.93
45.05
45.95
46.81
47.65
48.35
48.75
48.78
48.44
47.75
46.72
45.33
43.51
41.24
38.53
35.47
32.14
28.64
25.0
21.21
17.24
13.12
8.98
4.96
1.27
-2.01
-4.94
-7.71
-10.58
-13.77
-17.36
-21.25
-25.16
-28.77
-31.88
-34.53
-37.01
-39.83
-43.51
-48.27
-53.97
-59.98
-65.31
-68.83
-69.61
-67.12
-61.47
-53.32
-43.76
-33.96
-24.82
-16.83
-9.98
-4.0
1.46
6.56
11.33
15.68
19.5
22.8
25.6
27.96
29.9
31.39
32.4
32.97
33.16
33.06
32.77
32.4
32.06
31.83
31.77
31.79
31.7
31.22
30.11
28.29
25.89
23.24
20.67
18.46
16.63
15.01
13.29
11.23
8.79
6.05
3.21
0.44
-2.16
-4.62
-7.02
-9.48
-12.17
-15.31
-19.16
-23.91
-29.51
-35.57
-41.32
-45.76
-47.99
-47.49
-44.28
-38.91
-32.27
-25.27
-18.61
-12.64
-7.37
-2.59
1.94
6.4
10.77
14.9
18.56
21.5
23.63
24.97
25.67
25.91
25.83
25.53
25.04
24.4
23.63
22.74
21.73
20.53
19.11
17.51
15.83
14.27
13.0
12.07
11.41
10.86
10.21
9.35
8.19
6.75
5.06
3.15
1.06
-1.22
-3.7
-6.41
-9.37
-12.57
-15.93
-19.34
-22.69
-25.96
-29.3
-32.98
-37.27
-42.31
-47.85
-53.29
-57.69
-60.07
-59.77
-56.61
-50.97
-43.6
-35.42
-27.17
-19.38
-12.32
-6.13
-0.8
3.74
7.67
11.28
14.86
18.59
22.44
26.19
29.51
32.14
33.95
34.98
35.39
35.39
35.17
34.91
34.69
34.57
34.53
34.5
34.39
34.11
33.6
32.85
31.86
30.59
29.04
27.2
25.11
22.88
20.66
18.56
16.63
14.79
12.9
10.8
8.42
5.84
3.24
0.83
-1.35
-3.4
-5.58
-8.15
-11.26
-14.81
-18.51
-22.01
-25.05
-27.59
-29.84
-32.21
-35.12
-38.84
-43.41
-48.46
-53.36
-57.26
-59.36
-59.07
-56.25
-51.17
-44.41
-36.74
-28.83
-21.17
-14.09
-7.71
-2.06
2.93
7.35
11.32
14.93
18.26
21.28
23.92
26.09
27.74
28.89
29.68
30.22
30.66
31.09
31.52
31.95
32.31
32.58
32.68
32.56
32.13
31.31
30.1
28.54
26.8
25.09
23.55
22.2
20.98
19.74
18.37
16.82
15.16
13.48
11.84
10.3
8.85
7.46
6.11
4.74
3.29
1.66
-0.3
-2.72
-5.68
-9.19
-13.09
-17.13
-21.02
-24.55
-27.58
-30.22
-32.73
-35.51
-38.97
-43.26
-48.2
-53.13
-57.13
-59.26
-58.86
-55.77
-50.3
-43.13
-35.05
-26.8
-18.98
-12.02
-6.11
-1.21
2.91
6.6
10.17
13.76
17.26
20.45
23.04
24.88
25.99
26.56
26.84
27.05
27.31
27.66
28.06
28.43
28.71
28.87
28.86
28.64
28.14
27.28
25.99
24.29
22.29
20.17
18.14
16.35
14.85
13.48
12.04
10.33
8.28
5.98
3.59
1.3
-0.86
-2.91
-4.97
-7.15
-9.51
-12.03
-14.68
-17.42
-20.18
-22.83
-25.25
-27.38
-29.35
-31.45
-34.12
-37.7
-42.19
-47.19
-51.91
-55.41
-56.87
-55.82
-52.28
-46.67
-39.65
-31.96
-24.26
-17.11
-10.83
-5.57
-1.33
2.09
4.93
7.49
9.99
12.54
15.18
17.84
20.41
22.76
24.8
26.49
27.86
29.0
29.98
30.8
31.42
31.75
31.76
31.42
30.82
30.02
29.1
28.07
26.93
25.62
24.05
22.14
19.86
17.26
14.48
11.7
9.02
6.43
3.73
0.72
-2.76
-6.68
-10.85
-14.97
-18.79
-22.18
-25.18
-28.0
-30.93
-34.3
-38.36
-43.17
-48.44
-53.55
-57.54
-59.49
-58.71
-55.02
-48.81
-40.92
-32.35
-24.0
-16.43
-9.84
-4.16
0.85
5.42
9.74
13.88
17.84
21.51
24.72
27.26
28.96
29.8
29.9
29.56
29.14
28.94
29.12
29.62
30.23
30.65
30.62
30.04
28.9
27.26
25.17
22.57
19.38
15.49
10.92
5.83
0.47
-4.83
-9.81
-14.26
-18.05
-21.12
-23.47
-25.25
-26.8
-28.56
-31.04
-34.64
-39.49
-45.5
-52.29
-59.32
-65.94
-71.41
-75.03
-76.19
-74.48
-69.93
-62.94
-54.23
-44.67
-35.09
-26.01
-17.63
-9.82
-2.29
5.21
12.72
20.01
26.58
31.83
35.31
36.89
36.78
35.55
33.84
32.28
31.3
31.13
31.83
33.33
35.37
37.44
38.75
38.38
35.51
29.72
21.2
10.84
-0.05
-10.15
-18.48
-24.69
-29.12
-32.68
-36.57
-42.04
-50.09
-61.19
-75.13
-90.95
-107.2
-122.34
-135.27
-145.65
-154.03
-161.61
-169.79
-179.58
-191.2
-203.85
-215.85
-224.99
-229.08
-226.46
-216.49
-199.65
-177.54
-152.4
-126.71
-102.56
-81.35
-63.56
-48.8
-36.07
-23.83
-10.81
3.59
19.24
35.49
51.53
66.52
79.69
90.49
98.94
105.3
109.94
113.3
115.89
118.26
120.82
123.7
126.79
130.57
135.26
140.6
145.94
150.63
154.29
156.7
157.7
157.21
157.19
159.02
162.57
166.41
169.03
169.72
168.54
165.88
162.09
161.34
165.93
174.58
183.1
187.51
186.02
179.12
168.71
157.43
154.51
166.56
194.19
232.5
275.21
317.55
356.32
388.78
412.33
433.28
456.2
481.01
504.15
523.45
540.38
558.01
578.27
548.0
441.08
270.82
80.41
-91.67
-229.57
-334.4
-413.23
-472.4
-515.43
-535.27
-527.68
-496.64
-453.84
-411.9
-378.99
-357.44
-345.18
-337.99
-325.76
-302.78
-271.05
-238.44
-212.41
-195.7
-186.19
-179.51
-171.78
-157.36
-134.5
-105.73
-76.55
-50.59
-28.21
-8.37
8.91
21.87
30.13
33.95
34.52
33.52
32.87
33.61
35.42
37.04
37.44
37.87
39.49
43.49
50.16
59.14
69.49
80.48
91.56
102.23
111.79
119.29
124.01
125.67
124.9
122.67
120.3
118.81
118.59
119.35
120.26
120.42
118.59
115.81
112.17
107.49
101.4
93.62
84.12
73.17
61.38
49.31
37.38
25.36
13.02
-0.04
-13.74
-27.49
-40.7
-53.26
-65.68
-78.74
-93.08
-108.39
-123.65
-137.15
-147.1
-152.36
-152.82
-149.24
-142.57
-133.55
-122.38
-109.84
-96.49
-82.57
-68.07
-53.02
-37.5
-21.55
-5.37
10.65
23.58
31.4
34.14
33.48
31.23
28.22
24.21
18.3
9.54
-7.04
-33.51
-67.32
-102.87
-135.11
-161.69
-182.52
-198.55
-210.92
-227.79
-253.74
-287.33
-322.94
-355.91
-385.31
-413.27
-443.22
-478.26
-529.25
-599.89
-682.91
-763.09
-825.57
-861.74
-870.18
-855.03
-764.99
-587.41
-353.36
-118.52
75.73
217.0
311.31
370.16
404.1
421.38
419.19
398.4
366.32
334.15
310.62
298.14
294.6
296.35
300.25
297.35
284.3
264.55
245.93
234.86
233.19
239.13
249.49
262.07
266.34
258.06
238.96
215.08
192.67
175.41
164.27
158.19
154.98
149.55
138.62
121.13
98.6
74.03
51.1
33.62
24.67
25.76
34.87
48.32
61.47
70.5
73.33
69.9
61.61
50.29
38.18
26.56
16.01
6.44
-2.27
-10.04
-16.79
-22.57
-27.66
-30.62
-30.36
-26.85
-21.57
-16.53
-13.22
-12.13
-12.79
-14.3
-12.86
-5.68
7.73
25.52
45.3
65.58
85.82
105.94
125.43
147.08
172.49
200.8
228.97
253.95
274.4
290.7
304.14
295.71
255.54
187.6
108.09
33.28
-28.64
-76.23
-110.7
-131.62
-142.31
-141.98
-131.4
-114.65
-98.22
-87.66
-84.74
-88.08
-93.37
-96.52
-92.41
-79.81
-62.02
-45.23
-35.05
-33.76
-40.02
-49.81
-58.25
-58.41
-44.63
-14.44
29.98
81.45
129.05
160.81
168.29
150.64
117.36
84.23
66.57
72.29
98.83
135.32
168.58
189.54
196.3
193.29
186.28
178.03
166.94
149.22
122.69
89.17
54.18
23.96
2.1
-12.22
-23.62
-37.9
-59.28
-88.77
-124.19
-161.33
-195.42
-222.51
-240.16
-247.67
-246.04
-237.54
-225.07
-211.33
-197.98
-185.22
-171.97
-156.57
-137.73
-115.21
-90.0
-63.85
-38.53
-15.33
5.2
23.19
39.5
55.57
73.21
94.08
118.83
146.38
173.76
196.76
211.28
214.7
206.56
188.45
163.15
133.84
103.69
75.7
52.63
36.45
27.57
24.3
23.18
20.11
11.92
-2.53
-22.15
-44.48
-66.82
-87.1
-103.91
-116.17
-122.65
-122.16
-114.15
-99.47
-80.48
-60.44
-42.45
-28.23
-17.83
-10.01
-3.13
4.18
12.9
24.17
39.53
60.63
88.28
121.3
156.0
186.85
208.08
215.56
208.13
187.71
158.36
124.8
91.0
59.48
31.22
6.08
-16.59
-37.67
-57.9
-77.63
-96.47
-113.03
-125.11
-130.1
-125.97
-112.11
-89.73
-61.57
-30.96
-0.72
27.31
52.26
73.44
89.58
98.51
97.59
84.79
59.59
23.49
-20.39
-68.39
-117.44
-165.98
-213.46
-259.4
-302.05
-337.91
-362.41
-371.6
-363.97
-341.21
-307.54
-267.93
-226.08
-183.56
-140.14
-95.15
-48.74
-2.27
42.45
84.27
123.29
160.51
196.67
231.26
262.09
285.92
299.47
300.42
287.88
262.26
225.07
178.67
126.24
71.51
18.38
-29.75
-70.53
-103.01
-127.39
-144.54
-155.69
-162.03
-164.78
-165.1
-164.09
-162.6
-161.11
-159.71
-158.13
-155.89
-152.51
-147.78
-141.77
-134.95
-128.01
-121.57
-115.97
-111.15
-106.77
-102.44
-97.98
-93.49
-89.16
-85.19
-81.58
-78.15
-74.68
-71.12
-67.5
-63.99
-60.64
-57.36
-53.83
-49.67
-44.63
-38.66
-32.0
-25.02
-18.1
-11.48
-5.3
0.41
5.59
10.17
14.16
17.66
20.92
24.22
27.76
31.62
35.69
39.83
43.94
47.94
51.68
54.88
57.02
57.62
56.38
53.39
49.05
43.94
38.57
33.26
28.24
23.73
19.94
17.05
14.98
13.43
11.94
10.15
7.99
5.69
3.66
2.16
1.25
0.79
0.61
0.71
1.23
2.31
3.99
6.04
8.09
9.74
10.75
11.05
10.75
10.03
9.05
7.92
6.64
5.25
3.8
2.41
1.34
0.91
1.38
2.91
5.46
8.78
12.55
16.42
20.16
23.7
27.05
30.14
32.81
34.74
35.47
34.57
31.74
26.88
20.17
12.04
3.04
-6.17
-14.95
-22.67
-28.86
-33.17
-35.48
-35.91
-34.86
-32.99
-31.01
-29.67
-29.47
-30.56
-32.7
-35.38
-37.95
-39.81
-40.64
-40.41
-39.43
-38.2
-37.31
-37.24
-38.26
-40.39
-43.42
-46.95
-50.55
-53.91
-56.93
-59.85
-63.17
-67.42
-72.93
-79.57
-86.6
-92.73
-96.54
-96.88
-93.18
-85.7
-75.35
-63.36
-50.89
-38.74
-27.23
-16.36
-5.96
4.05
13.56
22.36
30.2
36.94
42.55
47.14
50.79
53.59
55.6
56.95
57.84
58.56
59.46
60.76
62.5
64.57
66.69
68.59
70.07
71.11
71.79
72.25
72.58
72.8
72.92
72.88
72.72
72.51
72.37
72.34
72.44
72.58
72.67
72.59
72.26
71.67
70.79
69.59
68.07
66.32
64.58
63.33
63.18
64.73
68.29
73.69
80.17
86.59
91.75
94.73
94.89
92.24
87.74
82.16
75.74
68.46
60.14
50.62
39.87
27.86
14.83
1.64
-11.06
-23.1
-34.39
-44.85
-54.41
-62.9
-70.92
-78.91
-86.0
-92.06
-97.68
-103.19
-108.57
-113.47
-117.47
-122.35
-129.48
-136.51
-142.7
-149.08
-155.94
-162.92
-169.24
-174.08
-181.02
-192.36
-202.52
-209.01
-213.31
-215.98
-216.77
-214.84
-209.1
-205.19
-206.73
-205.11
-197.5
-188.35
-181.37
-178.99
-181.83
-188.57
-204.85
-232.12
-255.13
-266.19
-268.03
-264.22
-258.91
-255.92
-204.58
-83.95
24.21
97.26
160.05
221.5
285.85
352.85
418.77
478.31
518.38
531.59
530.22
521.79
505.34
480.07
445.4
401.97
352.46
294.9
230.5
172.42
126.56
89.98
59.52
33.0
10.01
-8.47
-25.04
-41.13
-50.83
-52.0
-46.93
-37.33
-24.29
-8.58
8.91
24.66
35.28
41.15
41.81
36.54
27.22
18.01
13.99
19.27
34.54
57.59
85.06
112.2
134.29
148.6
154.47
152.74
144.95
132.8
118.12
102.91
89.31
79.16
73.44
71.65
71.94
71.65
68.33
60.52
48.06
31.88
13.45
-5.72
-24.46
-41.95
-57.75
-71.6
-83.38
-93.01
-100.37
-105.31
-107.88
-108.36
-107.37
-105.7
-104.08
-102.86
-101.92
-100.85
-99.19
-96.8
-93.82
-90.61
-87.42
-84.33
-81.27
-78.23
-75.46
-73.36
-72.32
-72.44
-73.42
-74.64
-75.48
-75.56
-74.9
-73.88
-72.97
-72.44
-72.16
-71.62
-70.11
-66.98
-61.81
-54.4
-44.67
-32.57
-18.12
-1.65
15.93
33.01
47.38
56.78
59.76
56.32
48.15
38.08
29.11
23.39
21.66
23.37
27.26
32.06
36.92
41.44
45.54
49.24
52.66
56.03
59.68
63.86
68.54
73.32
77.49
80.25
81.04
79.58
75.92
70.4
63.62
56.39
49.57
43.79
39.17
35.18
30.82
24.98
17.06
7.29
-3.29
-13.26
-21.45
-27.38
-31.36
-34.09
-36.23
-37.93
-38.88
-38.61
-36.86
-33.86
-30.2
-26.58
-23.39
-20.59
-17.83
-14.74
-11.25
-7.68
-4.61
-2.54
-1.65
-1.66
-2.04
-2.28
-2.13
-1.73
-1.37
-1.29
-1.49
-1.7
-1.54
-0.81
0.38
1.64
2.54
2.86
2.61
2.11
1.63
1.38
1.36
1.45
1.49
1.45
1.39
1.46
1.77
2.33
3.01
3.62
4.0
4.08
3.87
3.51
3.07
2.59
2.0
1.18
-0.02
-1.67
-3.77
-6.26
-8.92
-11.49
-13.62
-14.89
-15.07
-14.1
-12.26
-10.01
-7.88
-6.27
-5.29
-4.85
-4.71
-4.63
-4.47
-4.22
-3.98
-3.84
-3.75
-3.56
-2.97
-1.76
0.1
2.46
5.02
7.48
9.68
11.54
13.08
14.28
15.09
15.47
15.44
15.16
14.8
14.47
14.1
13.5
12.47
10.92
8.88
6.55
4.14
1.86
-0.25
-2.21
-4.12
-6.09
-8.24
-10.62
-13.24
-16.06
-19.0
-22.0
-25.07
-28.29
-31.89
-36.09
-41.01
-46.52
-52.15
-57.12
-60.65
-62.16
-61.59
-59.39
-56.32
-53.25
-50.44
-47.96
-45.91
-44.49
-43.75
-43.48
-43.38
-43.47
-44.12
-45.87
-49.67
-56.68
-67.7
-82.56
-99.88
-117.72
-134.26
-148.18
-157.92
-162.71
-162.87
-159.59
-154.14
-147.67
-141.59
-137.84
-138.19
-141.14
-145.02
-149.85
-157.6
-170.49
-189.46
-214.37
-244.46
-276.73
-301.49
-310.3
-300.9
-277.73
-247.53
-215.13
-183.53
-155.25
-129.88
-97.51
-50.41
10.86
78.05
142.64
201.86
256.37
306.3
354.33
413.78
494.05
593.38
700.07
802.16
896.32
983.27
1062.43
1062.43
941.66
720.36
467.06
239.85
59.7
-73.04
-154.31
-207.22
-245.69
-265.34
-260.06
-231.15
-186.83
-145.2
-108.22
-74.53
-46.41
-24.36
0.05
33.95
76.99
121.38
158.79
192.31
224.84
253.74
276.27
295.73
315.88
336.67
353.75
326.61
244.5
127.29
7.02
-93.81
-166.68
-212.95
-238.92
-252.64
-260.91
-261.38
-252.91
-238.86
-224.12
-211.4
-201.16
-193.16
-187.55
-184.58
-179.32
-168.99
-154.78
-139.84
-126.62
-115.86
-107.38
-100.77
-95.54
-88.55
-78.17
-65.2
-51.89
-39.96
-29.87
-21.29
-13.79
-7.34
-1.3
3.63
5.37
1.71
-8.03
-22.54
-39.12
-54.98
-68.1
-77.28
-82.67
-85.38
-86.72
-87.54
-88.24
-89.05
-90.26
-92.62
-96.15
-100.06
-102.74
-102.0
-96.13
-84.78
-69.16
-51.61
-34.7
-20.29
-9.18
-0.93
5.78
12.11
18.36
23.72
26.8
26.36
21.98
14.21
4.52
-4.76
-11.87
-16.44
-19.53
-22.87
-27.88
-35.2
-44.74
-55.47
-64.21
-68.25
-66.64
-60.47
-51.95
-43.5
-37.58
-36.85
-42.64
-51.04
-57.18
-57.4
-50.36
-36.14
-15.39
10.19
37.3
63.41
92.44
127.62
168.5
210.73
249.53
282.94
311.38
335.39
357.17
385.61
426.55
479.32
537.34
593.4
643.92
688.01
724.69
707.38
611.56
449.78
265.92
101.5
-25.0
-114.14
-167.23
-201.97
-228.31
-243.11
-242.17
-225.86
-200.07
-175.08
-156.07
-144.8
-142.35
-146.6
-149.52
-145.14
-132.72
-116.8
-103.27
-95.43
-94.37
-100.58
-111.97
-122.6
-127.74
-125.84
-118.69
-109.1
-98.59
-87.88
-77.88
-68.27
-57.01
-42.64
-25.15
-5.99
13.14
31.53
48.96
65.11
79.88
93.37
105.19
114.53
120.63
123.39
123.66
122.68
121.41
120.54
120.24
120.27
120.14
119.14
116.39
110.95
102.08
89.58
74.05
56.79
39.42
23.39
9.59
-1.72
-10.74
-17.93
-23.75
-28.63
-32.95
-37.03
-41.04
-44.9
-48.21
-50.39
-50.85
-49.3
-45.89
-41.19
-35.96
-30.99
-26.82
-23.74
-21.68
-20.35
-19.32
-18.26
-17.05
-15.77
-14.64
-13.82
-13.23
-12.58
-11.4
-9.33
-6.26
-2.44
1.5
4.71
6.34
5.7
2.46
-3.29
-11.08
-20.23
-30.05
-39.92
-49.32
-57.74
-64.66
-69.55
-72.03
-71.93
-69.39
-64.83
-58.86
-52.23
-45.79
-40.46
-37.12
-36.41
-38.64
-43.62
-50.82
-59.5
-68.85
-78.2
-87.05
-95.14
-102.48
-109.25
-115.75
-122.13
-128.19
-133.39
-136.95
-138.21
-137.09
-134.2
-130.8
-128.24
-127.44
-128.38
-130.08
-130.98
-129.58
-124.99
-117.15
-106.63
-94.28
-80.91
-67.22
-53.68
-40.73
-28.68
-17.67
-7.64
1.75
10.84
19.88
28.77
37.05
44.01
48.89
50.95
49.71
44.9
36.56
25.1
11.38
-3.37
-17.72
-30.37
-40.53
-48.15
-53.89
-58.83
-63.97
-69.95
-76.96
-84.96
-93.82
-103.35
-113.34
-123.29
-132.53
-140.4
-146.44
-150.48
-152.49
-152.44
-150.15
-145.44
-138.34
-129.21
-118.71
-107.52
-96.09
-84.54
-72.75
-60.49
-47.61
-33.95
-19.4
-3.85
12.6
29.51
46.06
61.25
74.23
84.54
92.22
97.64
101.25
103.29
103.7
102.2
98.48
92.44
84.34
74.81
64.67
54.82
45.92
38.4
32.34
27.59
23.89
20.98
18.72
17.09
16.09
15.72
15.85
16.29
16.85
17.34
17.68
17.89
18.03
18.18
18.48
19.06
20.04
21.49
23.39
25.64
28.09
30.56
32.92
35.01
36.75
38.05
38.89
39.31
39.4
39.27
39.04
38.79
38.59
38.37
38.04
37.41
36.27
34.51
32.2
29.57
26.97
24.76
23.07
21.82
20.69
19.25
17.09
14.03
10.15
5.81
1.65
-1.54
-2.99
-2.05
1.52
7.58
15.47
24.18
32.58
39.71
44.89
47.89
48.81
47.93
45.61
42.18
37.9
33.13
28.23
23.59
19.57
16.34
13.88
12.05
10.7
9.78
9.4
9.76
10.98
13.05
15.79
18.83
21.79
24.35
26.31
27.59
28.18
28.1
27.34
25.88
23.69
20.85
17.49
13.89
10.39
7.3
4.77
2.72
0.92
-0.85
-2.68
-4.41
-5.73
-6.39
-6.37
-5.95
-5.6
-5.77
-6.76
-8.58
-11.1
-14.1
-17.37
-20.69
-23.82
-26.47
-28.35
-29.29
-29.31
-28.63
-27.6
-26.57
-25.79
-25.44
-25.55
-26.07
-26.85
-27.7
-28.39
-28.67
-28.38
-27.37
-25.57
-22.97
-19.62
-15.69
-11.45
-7.19
-3.28
-0.0
2.44
4.01
4.76
4.8
4.23
3.08
1.41
-0.74
-3.3
-6.14
-9.06
-11.86
-14.37
-16.48
-18.15
-19.46
-20.49
-21.36
-22.14
-22.89
-23.62
-24.32
-25.03
-25.81
-26.79
-28.08
-29.82
-32.06
-34.83
-38.01
-41.3
-44.23
-46.18
-46.55
-44.94
-41.31
-36.02
-29.69
-23.04
-16.68
-10.97
-6.02
-1.75
2.02
5.43
8.61
11.58
14.3
16.7
18.72
20.37
21.7
22.81
23.76
24.54
25.08
25.3
25.19
24.85
24.49
24.29
24.3
24.37
24.23
23.59
22.35
20.61
18.67
16.84
15.32
14.04
12.74
11.06
8.81
5.93
2.61
-0.92
-4.42
-7.78
-10.97
-14.06
-17.16
-20.45
-24.13
-28.33
-33.01
-37.88
-42.31
-45.54
-46.87
-45.93
-42.8
-37.9
-31.88
-25.36
-18.82
-12.56
-6.73
-1.42
3.37
7.68
11.53
14.96
17.96
20.48
22.5
24.09
25.35
26.44
27.48
28.47
29.32
29.93
30.22
30.18
29.86
29.22
28.25
26.86
25.01
22.74
20.19
17.55
14.95
12.45
9.98
7.38
4.54
1.42
-1.85
-5.0
-7.73
-9.82
-11.25
-12.31
-13.45
-15.16
-17.82
-21.55
-26.26
-31.63
-37.17
-42.22
-45.96
-47.57
-46.4
-42.17
-35.13
-26.01
-15.84
-5.58
4.09
12.96
21.2
29.23
37.44
46.05
55.06
64.26
73.28
81.72
89.22
95.51
100.3
103.33
104.36
103.3
100.36
96.1
91.33
86.8
82.91
79.55
76.21
72.2
67.03
60.5
52.66
43.59
33.34
21.97
9.68
-3.01
-15.32
-26.5
-36.12
-44.26
-51.44
-58.32
-65.34
-72.45
-79.08
-84.39
-87.57
-88.12
-86.02
-81.69
-75.87
-69.32
-62.68
-56.34
-50.41
-44.78
-39.25
-33.66
-27.95
-22.28
-16.92
-12.2
-8.41
-5.69
-3.97
-2.99
-2.37
-1.74
-0.84
0.45
2.12
4.06
6.13
8.21
10.22
12.09
13.77
15.18
16.3
17.07
17.43
17.28
16.46
14.83
12.36
9.17
5.52
1.73
-2.0
-5.61
-9.23
-13.1
-17.55
-22.77
-28.8
-35.42
-42.15
-48.31
-53.09
-55.73
-55.7
-52.83
-47.36
-39.9
-31.31
-22.43
-13.91
-6.1
0.95
7.4
13.44
19.17
24.56
29.44
33.62
36.99
39.5
41.23
42.36
43.06
43.54
43.89
44.13
44.21
44.05
43.6
42.9
42.05
41.15
40.21
39.06
37.5
35.28
32.29
28.64
24.56
20.36
16.27
12.38
8.65
4.97
1.32
-2.21
-5.42
-8.11
-10.2
-11.78
-13.11
-14.55
-16.44
-19.06
-22.55
-26.91
-31.97
-37.34
-42.36
-46.2
-47.98
-47.04
-43.19
-36.8
-28.75
-20.1
-11.8
-4.44
1.79
7.05
11.65
15.82
19.69
23.21
26.28
28.78
30.63
31.8
32.34
32.33
31.9
31.26
30.65
30.31
30.4
30.96
31.9
33.03
34.12
34.99
35.52
35.67
35.47
34.96
34.2
33.23
32.09
30.78
29.37
27.96
26.58
25.22
23.77
22.06
19.89
17.21
14.05
10.66
7.25
3.95
0.82
-2.22
-5.26
-8.4
-11.72
-15.24
-18.85
-22.31
-25.11
-26.68
-26.46
-24.14
-19.82
-14.02
-7.51
-1.1
4.56
9.2
12.96
16.21
19.4
22.83
26.56
30.41
34.09
37.32
39.93
41.84
43.03
43.42
42.97
41.71
39.85
37.74
35.75
34.13
32.83
31.6
30.07
27.96
25.17
21.83
18.22
14.66
11.36
8.35
5.57
2.88
0.18
-2.5
-5.08
-7.43
-9.49
-11.28
-12.97
-14.84
-17.18
-20.17
-23.74
-27.55
-30.98
-33.26
-33.68
-31.81
-27.68
-21.79
-14.94
-8.03
-1.8
3.37
7.44
10.7
13.57
16.44
19.51
22.8
26.19
29.52
32.68
35.62
38.33
40.73
42.71
44.08
44.73
44.63
43.98
43.02
42.0
41.0
39.9
38.45
36.42
33.72
30.45
26.91
23.39
20.04
16.8
13.4
9.56
5.11
0.09
-5.33
-10.89
-16.4
-21.79
-27.04
-32.13
-37.0
-41.56
-45.82
-49.89
-54.0
-58.41
-63.22
-68.2
-72.81
-76.21
-77.57
-76.26
-72.14
-65.59
-57.46
-48.77
-40.4
-32.97
-26.71
-21.56
-17.31
-13.69
-10.48
-7.46
-4.52
-1.66
1.01
3.26
4.91
5.87
6.23
6.23
6.2
6.46
7.23
8.56
10.33
12.21
13.87
15.0
15.47
15.35
14.86
14.29
13.85
13.66
13.66
13.7
13.66
13.43
12.93
12.13
11.02
9.65
8.09
6.42
4.68
2.81
0.72
-1.65
-4.25
-6.91
-9.41
-11.57
-13.4
-15.1
-16.96
-19.27
-22.13
-25.43
-28.75
-31.43
-32.72
-31.89
-28.57
-22.88
-15.48
-7.34
0.53
7.47
13.31
18.3
22.82
27.06
30.91
34.0
35.94
36.54
35.92
34.33
32.03
29.13
25.58
21.34
16.49
11.33
6.28
1.75
-2.09
-5.24
-7.85
-10.02
-11.68
-12.69
-12.91
-12.34
-11.22
-9.9
-8.8
-8.29
-8.62
-9.89
-12.0
-14.68
-17.52
-20.16
-22.38
-24.16
-25.74
-27.44
-29.47
-31.87
-34.49
-37.08
-39.46
-41.57
-43.43
-45.12
-46.81
-48.64
-50.79
-53.3
-55.94
-58.19
-59.3
-58.49
-55.28
-49.63
-42.0
-33.19
-24.06
-15.32
-7.51
-0.95
4.15
7.73
9.89
10.94
11.41
11.82
12.59
13.79
15.22
16.52
17.36
17.61
17.33
16.7
15.85
14.8
13.46
11.74
9.59
7.09
4.34
1.49
-1.32
-3.92
-6.2
-8.06
-9.52
-10.71
-11.89
-13.35
-15.3
-17.86
-21.0
-24.65
-28.68
-33.04
-37.68
-42.69
-48.21
-54.36
-61.06
-67.87
-73.87
-77.87
-78.71
-75.68
-68.88
-59.18
-48.0
-36.83
-26.82
-18.53
-11.94
-6.76
-2.62
0.75
3.44
5.49
6.9
7.75
8.15
8.23
8.12
7.96
7.94
8.31
9.36
11.35
14.35
18.18
22.49
26.74
30.35
32.8
33.8
33.33
31.67
29.27
26.59
23.91
21.24
18.45
15.38
12.08
8.87
6.19
4.42
3.69
3.76
4.15
4.31
3.8
2.33
-0.2
-3.77
-8.13
-12.88
-17.31
-20.57
-21.9
-20.78
-17.24
-11.8
-5.29
1.35
7.43
12.58
16.78
20.16
22.92
25.11
26.71
27.61
27.72
27.05
25.7
23.94
22.06
20.41
19.19
18.53
18.37
18.62
19.12
19.78
20.54
21.33
22.1
22.72
23.08
23.11
22.83
22.36
21.9
21.56
21.42
21.46
21.6
21.77
21.85
21.74
21.34
20.6
19.56
18.32
17.04
15.84
14.74
13.65
12.36
10.64
8.26
5.03
0.85
-4.14
-9.57
-14.82
-19.1
-21.72
-22.29
-20.83
-17.77
-13.77
-9.46
-5.36
-1.75
1.31
3.9
6.19
8.33
10.4
12.37
14.17
15.63
16.65
17.21
17.37
17.27
17.1
17.02
17.2
17.73
18.68
19.92
21.27
22.42
23.06
23.08
22.53
21.66
20.74
19.92
19.14
18.21
16.88
15.03
12.73
10.2
7.67
5.29
3.06
0.84
-1.49
-4.01
-6.66
-9.32
-11.83
-14.1
-16.15
-18.08
-20.02
-22.12
-24.55
-27.4
-30.76
-34.64
-38.88
-43.13
-46.79
-49.15
-49.54
-47.5
-43.02
-36.54
-28.83
-20.82
-13.3
-6.73
-1.21
3.44
7.51
11.17
14.46
17.23
19.33
20.72
21.57
22.18
22.81
23.54
24.24
24.68
24.66
24.23
23.61
23.1
22.91
23.0
23.08
22.83
22.01
20.69
19.11
17.62
16.42
15.45
14.43
13.02
10.95
8.2
5.02
1.75
-1.26
-3.85
-6.07
-8.14
-10.41
-13.16
-16.62
-20.85
-25.68
-30.77
-35.53
-39.26
-41.28
-41.06
-38.44
-33.68
-27.42
-20.48
-13.65
-7.46
-2.11
2.41
6.27
9.61
12.48
14.92
16.97
18.75
20.39
22.04
23.69
25.25
26.56
27.47
27.96
28.05
27.89
27.63
27.42
27.32
27.31
27.25
26.94
26.19
24.88
23.07
20.98
18.87
16.96
15.24
13.51
11.46
8.86
5.68
2.09
-1.61
-5.19
-8.56
-11.76
-14.9
-18.12
-21.47
-25.06
-29.04
-33.52
-38.47
-43.55
-48.01
-50.95
-51.53
-49.33
-44.57
-37.97
-30.55
-23.17
-16.43
-10.5
-5.28
-0.63
3.59
7.38
10.73
13.6
16.04
18.14
20.04
21.84
23.59
25.29
26.85
28.21
29.33
30.19
30.81
31.23
31.39
31.24
30.72
29.81
28.59
27.2
25.8
24.47
23.22
21.97
20.52
18.71
16.41
13.61
10.5
7.36
4.46
1.91
-0.37
-2.66
-5.24
-8.23
-11.57
-15.02
-18.31
-21.31
-24.01
-26.55
-29.12
-31.87
-34.97
-38.54
-42.65
-47.17
-51.61
-55.22
-57.1
-56.57
-53.39
-47.94
-40.99
-33.45
-26.01
-19.01
-12.51
-6.45
-0.82
4.28
8.79
12.72
16.26
19.59
22.8
25.79
28.31
30.12
31.18
31.62
31.71
31.71
31.78
31.95
32.22
32.6
33.11
33.73
34.4
35.0
35.36
35.45
35.32
35.12
35.0
35.01
35.1
35.06
34.68
33.76
32.24
30.24
27.98
25.73
23.65
21.69
19.61
17.07
13.85
9.96
5.66
1.38
-2.51
-5.84
-8.7
-11.37
-14.22
-17.58
-21.74
-26.92
-33.27
-40.64
-48.52
-55.9
-61.45
-63.82
-62.14
-56.4
-47.48
-36.96
-26.6
-17.87
-11.65
-8.12
-6.95
-7.46
-8.84
-10.38
-11.51
-11.94
-11.76
-11.3
-11.06
-11.45
-12.63
-14.46
-16.52
-18.29
-19.27
-19.12
-17.79
-15.54
-12.92
-10.67
-9.49
-9.84
-11.65
-14.4
-17.19
-19.24
-20.1
-19.9
-19.21
-18.73
-18.99
-20.12
-21.98
-24.3
-26.92
-29.87
-33.29
-37.28
-41.78
-46.61
-51.49
-56.21
-60.73
-65.13
-69.56
-74.19
-79.13
-84.42
-90.03
-95.92
-101.92
-107.79
-113.11
-117.37
-120.05
-120.75
-119.35
-116.05
-111.33
-105.77
-99.8
-93.55
-86.83
-79.21
-70.26
-59.65
-47.24
-33.13
-17.6
-1.11
15.71
32.13
47.48
61.26
73.21
83.32
91.64
98.22
102.95
105.69
106.3
104.86
101.67
97.22
92.05
86.59
81.0
75.22
69.03
62.23
54.8
46.96
39.14
31.78
25.11
19.02
13.09
6.74
-0.53
-8.86
-17.99
-27.12
-35.02
-40.23
-41.33
-37.36
-28.11
-14.29
2.72
21.27
39.96
57.81
74.25
88.81
100.88
109.69
114.64
115.64
113.3
108.71
103.08
97.22
91.28
84.9
77.49
68.67
58.43
47.16
35.41
23.66
12.17
0.94
-10.12
-21.04
-31.64
-41.47
-49.98
-56.73
-61.5
-64.45
-65.98
-66.69
-67.17
-67.94
-69.47
-72.04
-75.66
-79.98
-84.19
-87.11
-87.4
-83.85
-75.65
-62.67
-45.52
-25.58
-4.69
15.19
32.38
45.85
55.29
61.0
63.64
63.96
62.65
60.29
57.43
54.57
52.07
50.02
48.23
46.34
43.97
40.89
37.19
33.16
29.13
25.3
21.63
17.92
13.91
9.52
4.9
0.39
-3.65
-7.07
-10.07
-13.18
-17.02
-22.14
-28.76
-36.62
-44.97
-52.64
-58.26
-60.54
-58.61
-52.25
-41.99
-28.98
-14.65
-0.35
12.94
24.77
35.05
43.86
51.26
57.26
61.83
65.04
67.08
68.23
68.74
68.71
68.12
66.93
65.21
63.17
61.17
59.45
58.05
56.75
55.2
53.13
50.54
47.64
44.76
42.22
40.05
38.1
36.07
33.64
30.55
26.62
21.73
15.94
9.53
3.17
-2.19
-5.47
-5.86
-3.06
2.54
10.05
18.44
26.93
35.2
43.31
51.46
59.66
67.59
74.68
80.39
84.37
86.63
87.42
87.08
85.86
83.86
81.08
77.49
73.09
67.93
62.07
55.59
48.54
40.93
32.74
23.91
14.43
4.39
-5.96
-16.28
-26.16
-35.29
-43.6
-51.24
-58.56
-65.92
-73.62
-81.81
-90.45
-99.37
-108.2
-116.41
-123.22
-127.7
-128.88
-126.07
-119.04
-108.2
-94.59
-79.6
-64.53
-50.32
-37.4
-25.78
-15.32
-5.96
2.15
8.7
13.39
16.16
17.29
17.42
17.32
17.77
19.29
22.05
25.86
30.26
34.69
38.68
41.93
44.34
45.89
46.64
46.62
45.88
44.5
42.65
40.51
38.28
36.07
33.89
31.67
29.3
26.68
23.82
20.8
17.75
14.8
12.04
9.48
7.04
4.55
1.79
-1.42
-5.12
-9.15
-13.24
-17.08
-20.53
-23.71
-26.93
-30.57
-34.83
-39.6
-44.53
-49.14
-53.15
-56.5
-59.39
-62.18
-65.27
-69.07
-73.9
-79.96
-87.0
-94.23
-100.19
-103.11
-101.41
-94.29
-82.14
-66.29
-48.73
-31.28
-15.2
-1.05
11.13
21.54
30.3
37.42
42.9
46.78
49.3
50.83
51.73
52.29
52.58
52.59
52.27
51.66
50.96
50.4
50.18
50.3
50.53
50.5
49.86
48.43
46.34
43.85
41.34
39.07
37.11
35.37
33.63
31.67
29.31
26.48
23.24
19.75
16.24
12.92
9.94
7.31
4.89
2.54
0.11
-2.43
-5.05
-7.62
-10.06
-12.32
-14.46
-16.61
-18.98
-21.75
-25.01
-28.72
-32.68
-36.62
-40.24
-43.4
-46.18
-48.86
-51.86
-55.58
-60.19
-65.51
-70.92
-75.44
-77.93
-77.36
-73.14
-65.33
-54.66
-42.32
-29.68
-17.89
-7.68
0.71
7.45
12.86
17.33
21.09
24.28
26.93
29.07
30.72
31.86
32.5
32.59
32.14
31.23
30.04
28.85
27.96
27.62
27.95
28.91
30.33
31.95
33.43
34.46
34.77
34.15
32.56
30.1
26.99
23.55
20.03
16.6
13.34
10.25
7.34
4.64
2.17
-0.07
-2.18
-4.24
-6.39
-8.73
-11.29
-14.02
-16.88
-19.78
-22.63
-25.37
-28.01
-30.58
-33.12
-35.68
-38.3
-41.03
-43.9
-46.91
-49.95
-52.63
-54.37
-54.46
-52.3
-47.65
-40.77
-32.31
-23.15
-14.09
-5.66
1.92
8.59
14.36
19.18
22.96
25.62
27.21
27.93
28.12
28.18
28.37
28.83
29.5
30.18
30.65
30.74
30.37
29.61
28.55
27.32
25.99
24.61
23.15
21.61
19.95
18.17
16.22
14.07
11.71
9.12
6.31
3.28
0.04
-3.42
-7.12
-11.08
-15.28
-19.62
-23.98
-28.19
-32.13
-35.75
-39.13
-42.4
-45.76
-49.37
-53.22
-57.14
-60.7
-63.3
-64.32
-63.25
-59.81
-54.13
-46.69
-38.2
-29.49
-21.26
-13.99
-7.81
-2.65
1.68
5.36
8.46
10.98
12.91
14.29
15.22
15.88
16.42
16.97
17.53
18.04
18.42
18.62
18.69
18.73
18.86
19.11
19.4
19.58
19.46
18.94
18.02
16.81
15.39
13.83
12.1
10.2
8.13
5.98
3.8
1.58
-0.79
-3.48
-6.59
-10.06
-13.71
-17.29
-20.64
-23.75
-26.82
-30.08
-33.75
-37.93
-42.64
-47.71
-52.9
-57.79
-61.76
-64.07
-64.02
-61.2
-55.64
-47.9
-38.87
-29.59
-20.91
-13.32
-6.93
-1.58
2.98
7.04
10.74
14.21
17.47
20.55
23.38
25.86
27.92
29.48
30.57
31.31
31.88
32.45
33.16
34.03
34.99
35.85
36.41
36.5
36.05
35.09
33.74
32.13
30.37
28.49
26.47
24.26
21.81
19.15
16.36
13.56
10.87
8.33
5.92
3.51
0.97
-1.84
-4.94
-8.24
-11.61
-14.89
-17.99
-20.9
-23.69
-26.55
-29.71
-33.43
-37.85
-42.88
-48.13
-52.97
-56.61
-58.29
-57.5
-54.08
-48.29
-40.77
-32.35
-23.86
-16.0
-9.11
-3.25
1.75
6.12
9.99
13.4
16.31
18.71
20.68
22.32
23.75
25.01
26.08
26.91
27.51
27.92
28.23
28.54
28.9
29.32
29.75
30.09
30.18
29.89
29.14
28.0
26.61
25.14
23.66
22.13
20.4
18.27
15.68
12.67
9.45
6.24
3.19
0.35
-2.38
-5.14
-8.05
-11.15
-14.36
-17.51
-20.4
-22.89
-24.95
-26.68
-28.28
-30.01
-32.07
-34.62
-37.6
-40.77
-43.62
-45.42
-45.48
-43.3
-38.77
-32.22
-24.29
-15.76
-7.27
0.71
7.94
14.35
19.94
24.78
29.04
32.89
36.48
39.86
42.95
45.65
47.8
49.35
50.35
50.93
51.24
51.39
51.39
51.14
50.48
49.21
47.2
44.36
40.73
36.39
31.53
26.41
21.3
16.41
11.85
7.53
3.27
-1.19
-6.04
-11.26
-16.63
-21.87
-26.72
-31.03
-34.83
-38.29
-41.66
-45.2
-49.17
-53.67
-58.68
-63.86
-68.61
-72.11
-73.54
-72.39
-68.5
-62.26
-54.35
-45.6
-36.8
-28.47
-20.91
-14.17
-8.17
-2.73
2.31
7.07
11.57
15.83
19.81
23.48
26.81
29.76
32.31
34.37
35.91
36.93
37.49
37.71
37.69
37.49
37.08
36.41
35.4
34.03
32.31
30.25
27.88
25.21
22.26
19.08
15.73
12.26
8.79
5.36
1.98
-1.4
-4.88
-8.59
-12.63
-17.01
-21.63
-26.31
-30.89
-35.28
-39.51
-43.8
-48.4
-53.54
-59.28
-65.35
-71.17
-75.81
-78.22
-77.52
-73.27
-65.69
-55.65
-44.43
-33.29
-23.16
-14.43
-6.99
-0.44
5.67
11.6
17.32
22.69
27.47
31.5
34.75
37.27
39.18
40.58
41.63
42.46
43.25
44.11
45.1
46.14
47.06
47.65
47.77
47.41
46.65
45.64
44.47
43.13
41.59
39.78
37.68
35.38
32.99
30.58
28.17
25.71
23.11
20.32
17.35
14.24
11.09
7.91
4.68
1.39
-1.98
-5.44
-8.99
-12.62
-16.35
-20.18
-24.06
-27.9
-31.63
-35.26
-38.89
-42.67
-46.82
-51.51
-56.8
-62.6
-68.55
-73.99
-77.98
-79.51
-77.83
-72.71
-64.66
-54.7
-44.11
-33.94
-24.73
-16.52
-9.0
-1.8
5.21
11.98
18.26
23.82
28.55
32.46
35.64
38.17
40.11
41.45
42.19
42.41
42.26
42.03
41.99
42.27
42.81
43.33
43.52
43.12
42.07
40.59
38.98
37.45
36.03
34.54
32.74
30.5
27.89
25.13
22.44
19.98
17.7
15.52
13.3
10.99
8.64
6.3
4.02
1.75
-0.54
-2.89
-5.28
-7.72
-10.16
-12.65
-15.22
-17.91
-20.73
-23.63
-26.57
-29.52
-32.49
-35.55
-38.85
-42.59
-46.87
-51.66
-56.6
-61.05
-64.16
-65.06
-63.21
-58.5
-51.31
-42.44
-32.82
-23.33
-14.63
-7.08
-0.71
4.69
9.43
13.88
18.22
22.48
26.53
30.18
33.32
35.93
38.13
40.03
41.69
43.11
44.23
44.99
45.42
45.59
45.62
45.58
45.47
45.19
44.55
43.39
41.62
39.29
36.57
33.71
30.93
28.29
25.76
23.17
20.35
17.25
13.87
10.35
6.81
3.37
0.06
-3.11
-6.2
-9.3
-12.55
-16.15
-20.31
-25.17
-30.73
-36.73
-42.62
-47.57
-50.77
-51.51
-49.56
-45.15
-38.97
-31.95
-24.95
-18.58
-13.01
-8.12
-3.69
0.44
4.33
7.85
10.89
13.49
15.77
17.92
19.99
21.86
23.27
24.0
23.98
23.42
22.73
22.24
22.15
22.39
22.74
22.96
22.93
22.63
22.13
21.47
20.62
19.46
17.87
15.79
13.24
10.4
7.49
4.76
2.32
0.13
-1.96
-4.2
-6.82
-9.95
-13.6
-17.72
-22.13
-26.63
-30.98
-34.97
-38.51
-41.72
-44.95
-48.63
-53.15
-58.6
-64.64
-70.53
-75.24
-77.8
-77.51
-74.13
-67.96
-59.69
-50.21
-40.38
-30.84
-21.98
-13.88
-6.47
0.41
6.88
12.99
18.72
23.98
28.67
32.68
35.96
38.46
40.19
41.21
41.68
41.8
41.85
42.02
42.38
42.82
43.08
42.91
42.2
41.03
39.65
38.26
36.93
35.55
33.86
31.7
29.04
26.05
22.99
20.07
17.31
14.58
11.74
8.67
5.4
2.03
-1.31
-4.54
-7.65
-10.75
-13.91
-17.19
-20.56
-23.91
-27.16
-30.26
-33.26
-36.24
-39.36
-42.69
-46.33
-50.34
-54.79
-59.76
-65.19
-70.77
-75.82
-79.39
-80.5
-78.51
-73.36
-65.61
-56.22
-46.27
-36.59
-27.67
-19.67
-12.51
-6.03
-0.1
5.38
10.43
15.05
19.19
22.83
26.0
28.74
31.1
33.09
34.66
35.76
36.37
36.67
36.9
37.33
38.09
39.15
40.25
41.11
41.54
41.48
41.02
40.27
39.32
38.16
36.79
35.2
33.48
31.69
29.91
28.11
26.14
23.84
21.09
17.97
14.73
11.68
9.1
7.06
5.35
3.61
1.49
-1.19
-4.33
-7.62
-10.7
-13.36
-15.61
-17.64
-19.78
-22.32
-25.51
-29.43
-34.03
-39.04
-43.9
-47.79
-49.82
-49.22
-45.67
-39.43
-31.26
-22.23
-13.34
-5.34
1.45
7.04
11.66
15.61
19.12
22.29
25.18
27.75
29.96
31.78
33.22
34.26
34.9
35.13
35.02
34.7
34.33
34.02
33.82
33.68
33.44
32.92
32.02
30.67
28.89
26.76
24.35
21.78
19.12
16.42
13.74
11.02
8.2
5.1
1.56
-2.58
-7.31
-12.47
-17.73
-22.71
-27.12
-30.93
-34.36
-37.85
-41.86
-46.71
-52.44
-58.72
-64.85
-69.91
-72.9
-73.05
-70.02
-64.09
-56.04
-46.95
-37.8
-29.23
-21.47
-14.38
-7.66
-1.06
5.54
12.08
18.38
24.23
29.44
33.84
37.33
39.91
41.68
42.8
43.51
43.97
44.29
44.53
44.69
44.72
44.61
44.3
43.77
42.95
41.8
40.28
38.42
36.28
33.96
31.54
29.01
26.37
23.55
20.54
17.31
13.91
10.42
6.91
3.49
0.26
-2.77
-5.64
-8.49
-11.49
-14.77
-18.37
-22.18
-25.99
-29.58
-32.83
-35.78
-38.61
-41.6
-45.02
-49.09
-53.87
-59.23
-64.73
-69.71
-73.29
-74.62
-73.12
-68.68
-61.77
-53.21
-43.96
-34.84
-26.34
-18.61
-11.59
-5.14
0.92
6.76
12.46
18.06
23.47
28.45
32.68
35.87
37.92
38.95
39.28
39.32
39.39
39.67
40.12
40.65
41.11
41.43
41.55
41.51
41.23
40.7
39.86
38.73
37.34
35.73
33.92
31.84
29.45
26.74
23.85
20.94
18.21
15.72
13.43
11.19
8.84
6.28
3.49
0.52
-2.56
-5.76
-9.09
-12.62
-16.37
-20.36
-24.51
-28.72
-32.87
-36.81
-40.47
-43.94
-47.43
-51.28
-55.72
-60.76
-66.07
-70.95
-74.52
-75.88
-74.44
-70.07
-63.15
-54.45
-44.87
-35.29
-26.3
-18.23
-11.19
-5.09
0.22
4.89
9.08
12.95
16.59
20.0
23.06
25.56
27.33
28.29
28.54
28.31
27.89
27.52
27.41
27.56
27.87
28.17
28.23
27.91
27.17
26.14
25.05
24.15
23.51
23.01
22.36
21.26
19.58
17.44
15.09
12.76
10.54
8.34
6.0
3.43
0.7
-1.98
-4.43
-6.54
-8.41
-10.26
-12.35
-14.88
-17.94
-21.54
-25.57
-29.84
-34.07
-37.84
-40.61
-41.8
-40.95
-37.85
-32.68
-25.96
-18.45
-10.93
-3.97
2.16
7.46
12.14
16.33
20.09
23.36
26.02
28.01
29.38
30.34
31.12
31.95
32.98
34.21
35.5
36.66
37.46
37.8
37.65
37.08
36.17
34.97
33.41
31.41
28.92
25.96
22.69
19.33
16.12
13.16
10.41
7.7
4.8
1.53
-2.17
-6.19
-10.3
-14.27
-17.97
-21.45
-24.96
-28.87
-33.51
-39.09
-45.47
-52.15
-58.32
-62.95
-65.08
-64.06
-59.76
-52.61
-43.5
-33.45
-23.42
-14.0
-5.43
2.32
9.37
15.79
21.55
26.58
30.82
34.28
37.05
39.24
40.91
42.07
42.73
42.96
42.9
42.73
42.63
42.63
42.71
42.72
42.51
41.95
40.96
39.5
37.6
35.31
32.75
30.0
27.16
24.26
21.23
18.02
14.6
11.04
7.49
4.11
1.03
-1.83
-4.67
-7.73
-11.17
-14.96
-18.88
-22.65
-26.09
-29.22
-32.29
-35.68
-39.75
-44.72
-50.55
-56.9
-63.15
-68.49
-71.99
-72.9
-70.82
-65.82
-58.44
-49.55
-40.13
-30.97
-22.63
-15.31
-8.93
-3.26
1.93
6.76
11.22
15.14
18.41
20.93
22.76
24.07
24.99
25.63
26.0
26.13
26.08
26.04
26.18
26.55
27.0
27.25
26.95
25.88
24.01
21.52
18.68
15.74
12.84
10.01
7.13
4.11
0.89
-2.49
-5.87
-9.03
-11.73
-13.81
-15.24
-16.24
-17.11
-18.19
-19.73
-21.81
-24.31
-26.98
-29.55
-31.81
-33.74
-35.5
-37.39
-39.7
-42.67
-46.39
-50.66
-55.05
-58.85
-61.2
-61.26
-58.4
-52.51
-44.0
-33.76
-22.85
-12.24
-2.59
5.79
12.9
18.88
23.92
28.21
31.93
35.25
38.3
41.13
43.67
45.8
47.38
48.35
48.77
48.8
48.67
48.51
48.4
48.29
48.03
47.39
46.22
44.43
42.04
39.23
36.19
33.13
30.14
27.17
24.04
20.56
16.55
11.96
6.85
1.39
-4.21
-9.69
-14.9
-19.72
-24.25
-28.68
-33.34
-38.51
-44.36
-50.76
-57.24
-63.05
-67.2
-68.79
-67.18
-62.28
-54.55
-44.97
-34.69
-24.7
-15.61
-7.56
-0.38
6.21
12.44
18.39
24.01
29.18
33.72
37.46
40.26
42.06
42.88
42.92
42.45
41.79
41.2
40.84
40.66
40.55
40.34
39.91
39.19
38.18
36.89
35.28
33.33
30.98
28.27
25.26
22.08
18.81
15.51
12.19
8.89
5.63
2.47
-0.66
-3.9
-7.4
-11.28
-15.48
-19.85
-24.15
-28.27
-32.2
-36.13
-40.29
-44.89
-49.99
-55.43
-60.77
-65.32
-68.23
-68.66
-66.11
-60.57
-52.57
-43.07
-33.11
-23.59
-15.05
-7.64
-1.25
4.29
9.2
13.59
17.52
21.0
24.0
26.45
28.24
29.34
29.79
29.78
29.53
29.34
29.42
29.89
30.78
31.91
33.09
34.01
34.44
34.22
33.33
31.91
30.22
28.51
26.94
25.5
23.96
22.05
19.6
16.65
13.48
10.4
7.7
5.49
3.66
1.99
0.23
-1.85
-4.36
-7.36
-10.84
-14.68
-18.68
-22.59
-26.21
-29.5
-32.7
-36.25
-40.6
-45.97
-52.14
-58.34
-63.44
-66.25
-65.89
-62.07
-55.18
-46.11
-36.0
-25.94
-16.74
-8.8
-2.17
3.34
8.01
12.09
15.75
19.0
21.83
24.19
26.09
27.53
28.57
29.23
29.49
29.36
28.88
28.2
27.53
27.05
26.83
26.76
26.6
26.05
24.9
23.16
21.02
18.79
16.7
14.89
13.33
11.91
10.48
8.95
7.26
5.37
3.3
1.06
-1.27
-3.59
-5.83
-8.01
-10.23
-12.71
-15.67
-19.16
-23.06
-27.03
-30.65
-33.65
-35.98
-37.98
-40.22
-43.29
-47.59
-52.98
-58.82
-64.03
-67.43
-68.04
-65.39
-59.59
-51.3
-41.54
-31.42
-21.91
-13.57
-6.6
-0.81
4.17
8.68
12.9
16.83
20.26
22.95
24.82
25.89
26.41
26.67
26.98
27.55
28.5
29.9
31.69
33.69
35.6
36.99
37.47
36.81
35.06
32.53
29.69
26.93
24.42
21.98
19.26
15.89
11.65
6.59
0.99
-4.73
-10.12
-14.85
-18.76
-21.97
-24.8
-27.78
-31.4
-36.01
-41.56
-47.59
-53.22
-57.31
-58.84
-57.1
-52.02
-44.13
-34.54
-24.52
-15.25
-7.45
-1.29
3.48
7.4
10.91
14.23
17.34
19.99
22.01
23.33
24.11
24.53
24.82
25.0
25.0
24.75
24.3
23.91
23.91
24.55
25.88
27.63
29.36
30.61
31.04
30.59
29.36
27.61
25.58
23.4
21.08
18.43
15.18
11.06
5.94
-0.08
-6.7
-13.47
-20.0
-26.05
-31.66
-37.03
-42.48
-48.35
-54.86
-62.12
-69.96
-77.81
-84.61
-89.0
-89.65
-85.82
-77.69
-66.31
-53.35
-40.34
-28.32
-17.57
-7.93
0.93
9.18
16.79
23.65
29.75
35.16
39.96
44.13
47.49
49.86
51.14
51.46
51.16
50.62
50.13
49.83
49.68
49.52
49.15
48.38
47.1
45.23
42.75
39.7
36.12
32.1
27.79
23.37
19.13
15.34
12.15
9.56
7.37
5.26
2.9
-0.01
-3.6
-7.86
-12.67
-17.77
-22.88
-27.73
-32.24
-36.6
-41.23
-46.74
-53.63
-62.05
-71.6
-81.24
-89.51
-94.73
-95.51
-91.14
-81.87
-68.85
-53.86
-38.75
-24.94
-13.15
-3.38
4.79
11.88
18.2
23.8
28.53
32.27
35.04
36.97
38.31
39.23
39.82
40.06
39.93
39.5
38.95
38.53
38.39
38.48
38.51
38.06
36.73
34.36
31.07
27.18
23.05
18.9
14.74
10.42
5.79
0.85
-4.18
-8.9
-12.97
-16.15
-18.49
-20.2
-21.59
-22.97
-24.53
-26.42
-28.7
-31.34
-34.35
-37.78
-41.82
-46.76
-52.88
-60.16
-68.09
-75.58
-81.1
-83.1
-80.42
-72.76
-60.78
-45.9
-29.87
-14.31
-0.35
11.5
21.17
28.87
34.86
39.34
42.49
44.53
45.69
46.28
46.53
46.54
46.31
45.8
45.03
44.19
43.58
43.61
44.58
46.61
49.54
53.0
56.49
59.54
61.86
63.38
64.11
64.1
63.26
61.37
58.15
53.39
47.05
39.37
30.76
21.71
12.63
3.84
-4.58
-12.68
-20.73
-29.01
-37.71
-46.68
-55.24
-62.14
-65.85
-65.06
-59.19
-48.76
-35.26
-20.68
-6.82
5.15
14.92
22.77
29.2
34.58
39.06
42.56
45.06
46.63
47.48
47.86
48.02
48.07
48.08
47.99
47.72
47.19
46.36
45.27
44.04
42.8
41.59
40.33
38.76
36.64
33.79
30.2
26.07
21.73
17.46
13.46
9.78
6.38
3.22
0.2
-2.8
-5.93
-9.33
-13.02
-16.88
-20.66
-24.1
-27.14
-29.97
-33.07
-37.02
-42.29
-49.01
-56.8
-64.65
-71.15
-74.68
-73.91
-68.23
-58.03
-44.7
-30.17
-16.35
-4.54
4.81
12.06
17.88
22.94
27.52
31.54
34.73
36.91
38.15
38.72
39.03
39.37
39.85
40.42
40.99
41.51
42.06
42.76
43.68
44.72
45.61
45.94
45.39
43.82
41.41
38.58
35.81
33.39
31.34
29.35
26.95
23.74
19.6
14.71
9.47
4.34
-0.35
-4.49
-8.19
-11.73
-15.43
-19.55
-24.25
-29.43
-34.85
-40.16
-45.04
-49.29
-52.97
-56.31
-59.67
-63.39
-67.66
-72.36
-76.97
-80.59
-82.1
-80.42
-74.88
-65.52
-53.18
-39.27
-25.43
-13.06
-2.95
4.75
10.42
14.67
18.03
20.79
23.07
24.91
26.34
27.49
28.48
29.35
30.05
30.45
30.39
29.91
29.17
28.43
27.9
27.63
27.51
27.29
26.81
26.01
25.01
23.95
22.92
21.94
20.95
19.9
18.82
17.76
16.71
15.61
14.26
12.57
10.53
8.29
6.02
3.81
1.6
-0.83
-3.72
-7.27
-11.64
-16.92
-23.14
-30.15
-37.43
-44.03
-48.67
-50.14
-47.72
-41.58
-32.73
-22.76
-13.22
-5.2
0.93
5.44
8.85
11.65
14.06
16.01
17.34
17.99
18.02
17.67
17.19
16.68
16.09
15.27
14.11
12.61
10.96
9.38
8.06
6.99
6.03
4.92
3.49
1.69
-0.36
-2.44
-4.36
-5.97
-7.24
-8.22
-9.1
-10.02
-11.21
-12.81
-14.83
-17.19
-19.67
-22.09
-24.33
-26.47
-28.71
-31.34
-34.57
-38.51
-43.15
-48.21
-53.17
-57.16
-59.11
-57.94
-53.02
-44.43
-33.07
-20.47
-8.27
2.29
10.67
17.03
21.92
25.91
29.38
32.46
35.14
37.4
39.29
40.88
42.11
42.78
42.56
41.21
38.7
35.33
31.63
28.17
25.4
23.48
22.37
21.85
21.65
21.52
21.3
20.8
19.87
18.36
16.18
13.36
10.06
6.51
2.89
-0.68
-4.26
-7.92
-11.74
-15.68
-19.63
-23.44
-27.0
-30.32
-33.52
-36.84
-40.61
-45.2
-50.95
-57.93
-65.77
-73.49
-79.61
-82.49
-80.92
-74.6
-64.28
-51.59
-38.44
-26.43
-16.46
-8.69
-2.75
1.91
5.71
8.9
11.58
13.81
15.72
17.41
18.9
20.07
20.75
20.79
20.23
19.34
18.55
18.31
18.85
20.08
21.58
22.81
23.25
22.68
21.24
19.26
17.2
15.32
13.71
12.17
10.44
8.25
5.5
2.25
-1.28
-4.8
-8.07
-11.02
-13.79
-16.59
-19.71
-23.27
-27.19
-31.17
-34.82
-37.88
-40.3
-42.36
-44.51
-47.29
-51.07
-55.93
-61.5
-66.96
-71.14
-72.77
-70.77
-64.62
-54.56
-41.53
-27.05
-12.72
0.07
10.54
18.53
24.38
28.74
32.2
35.21
37.9
40.24
42.16
43.66
44.81
45.76
46.6
47.31
47.81
48.02
48.0
47.91
47.92
48.04
48.06
47.64
46.41
44.23
41.25
37.85
34.43
31.24
28.29
25.29
21.87
17.76
12.91
7.49
1.83
-3.72
-8.91
-13.62
-17.93
-22.0
-26.13
-30.66
-35.93
-42.13
-49.14
-56.31
-62.46
-66.08
-65.8
-60.86
-51.49
-38.89
-24.86
-11.23
0.65
10.13
17.25
22.43
26.22
29.08
31.3
33.08
34.5
35.64
36.51
37.12
37.45
37.48
37.22
36.63
35.77
34.72
33.65
32.75
32.09
31.67
31.23
30.44
29.01
26.8
23.88
20.47
16.86
13.29
9.88
6.67
3.59
0.5
-2.86
-6.72
-11.25
-16.38
-21.81
-27.06
-31.71
-35.56
-38.76
-41.71
-45.03
-49.29
-54.88
-61.82
-69.54
-76.89
-82.24
-83.89
-80.57
-72.01
-59.06
-43.46
-27.29
-12.31
0.46
10.75
18.8
25.07
29.98
33.85
36.89
39.28
41.2
42.81
44.18
45.28
45.96
46.03
45.45
44.3
42.89
41.59
40.72
40.36
40.27
40.01
39.07
37.14
34.18
30.47
26.42
22.4
18.62
15.07
11.54
7.84
3.88
-0.24
-4.26
-7.93
-11.13
-14.03
-16.97
-20.33
-24.24
-28.56
-32.92
-36.9
-40.29
-43.14
-45.77
-48.6
-52.03
-56.41
-61.91
-68.41
-75.3
-81.39
-85.01
-84.55
-78.98
-68.39
-54.06
-38.03
-22.43
-8.79
2.31
11.06
18.13
24.12
29.37
33.9
37.6
40.4
42.33
43.52
44.11
44.17
43.74
42.81
41.45
39.79
38.11
36.7
35.82
35.56
35.75
35.99
35.75
34.58
32.34
29.24
25.77
22.42
19.46
16.82
14.2
11.27
7.86
4.14
0.43
-2.92
-5.73
-8.09
-10.25
-12.54
-15.23
-18.44
-22.18
-26.28
-30.51
-34.59
-38.29
-41.56
-44.52
-47.51
-51.0
-55.4
-60.86
-66.95
-72.62
-76.31
-76.36
-71.59
-61.83
-47.96
-31.76
-15.28
-0.18
12.59
22.89
31.05
37.54
42.74
46.83
49.93
52.19
53.82
55.06
56.1
56.93
57.46
57.48
56.89
55.74
54.29
52.92
51.97
51.61
51.71
51.91
51.7
50.68
48.62
45.57
41.83
37.79
33.77
29.93
26.23
22.47
18.42
13.95
9.05
3.86
-1.43
-6.64
-11.64
-16.29
-20.54
-24.43
-28.1
-31.89
-36.26
-41.63
-48.17
-55.56
-62.91
-68.83
-71.73
-70.3
-64.0
-53.27
-39.47
-24.53
-10.34
1.72
11.07
17.84
22.67
26.24
29.02
31.26
32.95
34.01
34.43
34.29
33.79
33.08
32.3
31.49
30.68
29.87
29.13
28.52
28.06
27.67
27.16
26.27
24.83
22.8
20.29
17.47
14.5
11.46
8.4
5.34
2.35
-0.55
-3.38
-6.26
-9.33
-12.69
-16.3
-19.95
-23.35
-26.26
-28.63
-30.66
-32.75
-35.37
-38.92
-43.68
-49.64
-56.41
-63.19
-68.75
-71.68
-70.7
-65.17
-55.32
-42.31
-27.86
-13.77
-1.4
8.62
16.3
22.04
26.38
29.75
32.42
34.58
36.32
37.68
38.67
39.24
39.38
39.1
38.53
37.83
37.24
36.95
37.09
37.56
38.17
38.53
38.29
37.17
35.13
32.37
29.26
26.2
23.5
21.26
19.41
17.67
15.74
13.34
10.36
6.86
3.09
-0.6
-3.91
-6.73
-9.2
-11.63
-14.43
-17.85
-21.95
-26.52
-31.22
-35.64
-39.55
-42.93
-45.99
-49.17
-52.98
-57.83
-63.88
-70.82
-77.78
-83.44
-86.34
-85.28
-79.7
-69.98
-57.3
-43.31
-29.67
-17.62
-7.73
0.07
6.2
11.13
15.27
18.78
21.76
24.29
26.5
28.46
30.18
31.49
32.15
31.95
30.92
29.36
27.79
26.69
26.28
26.41
26.64
26.47
25.54
23.86
21.72
19.52
17.62
16.08
14.74
13.32
11.58
9.46
7.05
4.53
2.08
-0.2
-2.32
-4.34
-6.38
-8.56
-10.94
-13.54
-16.32
-19.2
-22.05
-24.74
-27.25
-29.67
-32.22
-35.22
-38.9
-43.31
-48.15
-52.65
-55.71
-56.03
-52.56
-44.9
-33.52
-19.7
-5.23
8.21
19.42
27.98
34.18
38.63
41.98
44.63
46.72
48.26
49.24
49.72
49.81
49.56
48.93
47.85
46.24
44.15
41.79
39.47
37.47
35.9
34.62
33.28
31.48
28.96
25.67
21.83
17.78
13.8
10.03
6.36
2.55
-1.6
-6.2
-11.11
-16.08
-20.79
-24.97
-28.54
-31.65
-34.64
-38.0
-42.19
-47.48
-53.71
-60.24
-65.93
-69.4
-69.41
-65.24
-57.02
-45.72
-32.89
-20.2
-8.95
0.16
7.11
12.31
16.34
19.66
22.47
24.8
26.61
27.87
28.65
29.05
29.14
28.92
28.3
27.23
25.77
24.12
22.58
21.36
20.53
19.95
19.26
18.12
16.26
13.62
10.38
6.83
3.27
-0.09
-3.25
-6.36
-9.65
-13.36
-17.57
-22.24
-27.17
-32.11
-36.79
-41.03
-44.8
-48.2
-51.52
-55.1
-59.3
-64.35
-70.24
-76.56
-82.43
-86.59
-87.65
-84.5
-76.69
-64.72
-49.9
-34.03
-18.87
-5.65
5.11
13.51
20.05
25.29
29.68
33.54
37.05
40.26
43.1
45.46
47.19
48.17
48.39
47.95
47.03
45.86
44.62
43.44
42.35
41.27
40.09
38.67
36.89
34.65
31.96
28.8
25.25
21.42
17.48
13.6
9.9
6.41
3.09
-0.22
-3.7
-7.49
-11.65
-16.15
-20.91
-25.81
-30.69
-35.38
-39.72
-43.73
-47.58
-51.64
-56.4
-62.25
-69.22
-76.69
-83.41
-87.7
-87.98
-83.26
-73.63
-60.22
-44.91
-29.66
-15.99
-4.64
4.43
11.67
17.61
22.67
27.05
30.9
34.37
37.62
40.75
43.72
46.37
48.44
49.74
50.22
50.01
49.41
48.66
47.9
47.09
46.08
44.68
42.8
40.47
37.87
35.17
32.53
29.93
27.27
24.42
21.31
18.02
14.69
11.5
8.5
5.6
2.61
-0.65
-4.23
-7.97
-11.58
-14.76
-17.38
-19.54
-21.52
-23.69
-26.35
-29.76
-34.05
-39.12
-44.58
-49.57
-52.81
-52.91
-48.78
-40.11
-27.56
-12.66
2.65
16.67
28.33
37.33
43.93
48.64
51.89
53.94
54.92
54.99
54.42
53.5
52.47
51.39
50.13
48.46
46.21
43.44
40.41
37.52
35.11
33.27
31.74
30.14
28.0
25.09
21.47
17.48
13.48
9.76
6.33
2.94
-0.75
-5.0
-9.86
-15.14
-20.45
-25.41
-29.75
-33.43
-36.61
-39.67
-43.01
-47.04
-51.96
-57.63
-63.48
-68.46
-71.22
-70.51
-65.54
-56.31
-43.72
-29.33
-14.91
-1.94
8.72
16.93
23.02
27.53
30.97
33.68
35.87
37.6
38.88
39.65
39.81
39.26
38.02
36.27
34.33
32.6
31.34
30.68
30.47
30.43
30.26
29.7
28.63
27.02
24.91
22.4
19.56
16.51
13.32
10.13
7.03
4.12
1.44
-1.03
-3.4
-5.8
-8.44
-11.46
-14.95
-18.82
-22.85
-26.77
-30.32
-33.51
-36.53
-39.78
-43.66
-48.44
-54.09
-60.22
-66.05
-70.49
-72.35
-70.58
-64.72
-55.03
-42.55
-28.85
-15.58
-3.97
5.39
12.59
18.12
22.53
26.24
29.41
32.03
34.06
35.52
36.53
37.21
37.63
37.74
37.4
36.51
35.05
33.22
31.33
29.67
28.37
27.35
26.37
25.15
23.5
21.4
18.99
16.43
13.81
11.13
8.26
5.08
1.53
-2.3
-6.14
-9.66
-12.6
-14.9
-16.78
-18.69
-21.01
-23.94
-27.42
-31.08
-34.52
-37.45
-39.87
-42.04
-44.39
-47.37
-51.26
-56.04
-61.29
-66.2
-69.6
-70.3
-67.35
-60.45
-50.0
-37.12
-23.3
-9.99
1.69
11.18
18.43
23.82
27.85
31.05
33.75
36.13
38.25
40.09
41.68
43.05
44.18
44.96
45.28
45.07
44.44
43.64
43.0
42.82
43.14
43.8
44.4
44.52
43.82
42.18
39.71
36.65
33.36
30.13
27.09
24.17
21.12
17.64
13.54
8.77
3.55
-1.81
-6.99
-11.8
-16.27
-20.61
-25.2
-30.37
-36.36
-43.08
-50.11
-56.65
-61.61
-63.84
-62.48
-57.22
-48.49
-37.39
-25.43
-14.05
-4.25
3.55
9.54
14.17
17.84
20.77
22.89
24.11
24.39
23.9
22.98
21.95
21.04
20.29
19.61
18.9
18.11
17.31
16.6
16.06
15.69
15.34
14.77
13.7
11.97
9.59
6.76
3.88
1.31
-0.78
-2.48
-4.1
-6.06
-8.65
-11.93
-15.7
-19.62
-23.35
-26.67
-29.51
-31.99
-34.38
-37.06
-40.47
-44.94
-50.54
-56.9
-63.17
-68.03
-70.08
-68.2
-61.98
-51.99
-39.58
-26.54
-14.47
-4.32
3.71
10.07
15.39
20.14
24.43
28.18
31.2
33.47
35.05
36.07
36.6
36.67
36.33
35.67
34.93
34.37
34.09
34.07
34.1
33.92
33.3
32.18
30.62
28.78
26.79
24.74
22.57
20.15
17.32
13.96
10.13
6.01
1.89
-1.98
-5.48
-8.65
-11.74
-14.98
-18.55
-22.44
-26.5
-30.52
-34.37
-38.02
-41.57
-45.29
-49.46
-54.39
-60.25
-66.91
-73.81
-79.92
-83.86
-84.27
-80.25
-71.7
-59.53
-45.31
-30.92
-17.87
-7.08
1.3
7.63
12.45
16.26
19.36
21.9
23.96
25.63
26.95
27.99
28.73
29.12
29.14
28.85
28.41
28.01
27.86
28.03
28.47
28.96
29.24
29.06
28.28
26.94
25.14
23.04
20.76
18.34
15.79
13.15
10.52
8.06
5.86
3.91
2.01
-0.11
-2.74
-6.0
-9.75
-13.64
-17.28
-20.4
-22.97
-25.22
-27.53
-30.3
-33.85
-38.38
-43.88
-50.06
-56.18
-61.05
-63.24
-61.37
-54.75
-43.63
-29.22
-13.35
2.16
15.99
27.55
36.84
44.14
49.74
53.83
56.56
58.16
59.0
59.49
59.94
60.42
60.76
60.63
59.81
58.21
56.0
53.57
51.29
49.5
48.22
47.25
46.13
44.39
41.73
38.1
33.81
29.28
24.9
20.84
16.92
12.76
7.95
2.25
-4.23
-11.08
-17.78
-23.89
-29.25
-33.94
-38.32
-42.79
-47.71
-53.36
-59.81
-66.87
-73.92
-79.9
-83.42
-83.16
-78.29
-68.79
-55.66
-40.55
-25.38
-11.77
-0.66
7.74
13.86
18.4
22.01
25.1
27.8
30.0
31.6
32.59
33.12
33.35
33.42
33.33
33.06
32.62
32.14
31.84
31.92
32.4
33.09
33.56
33.36
32.1
29.62
26.06
21.79
17.26
12.88
8.9
5.32
1.92
-1.58
-5.47
-9.88
-14.75
-19.85
-24.91
-29.66
-33.95
-37.77
-41.28
-44.82
-48.79
-53.63
-59.61
-66.65
-74.13
-80.86
-85.29
-85.82
-81.47
-72.15
-58.81
-43.16
-27.19
-12.59
-0.35
9.28
16.67
22.4
27.09
31.13
34.73
37.96
40.78
43.14
44.96
46.11
46.5
46.09
44.95
43.33
41.58
40.08
39.07
38.54
38.26
37.84
36.91
35.28
32.98
30.26
27.36
24.46
21.6
18.71
15.69
12.57
9.44
6.41
3.53
0.67
-2.38
-5.92
-10.09
-14.86
-19.98
-25.1
-29.92
-34.19
-37.85
-41.03
-43.95
-47.04
-50.77
-55.57
-61.55
-68.31
-74.76
-79.31
-80.26
-76.43
-67.59
-54.63
-39.28
-23.59
-9.31
2.54
11.75
18.66
23.89
27.97
31.25
33.94
36.15
38.03
39.67
41.12
42.28
42.98
43.01
42.36
41.23
39.96
38.92
38.28
37.96
37.66
37.05
35.92
34.26
32.24
30.08
27.9
25.73
23.53
21.23
18.81
16.28
13.69
11.09
8.49
5.9
3.28
0.6
-2.26
-5.41
-8.89
-12.64
-16.48
-20.11
-23.23
-25.72
-27.67
-29.46
-31.6
-34.59
-38.6
-43.34
-47.93
-51.08
-51.45
-48.09
-40.72
-29.95
-17.02
-3.48
9.21
20.06
28.6
34.82
39.03
41.64
43.08
43.7
43.76
43.44
42.86
42.03
40.94
39.46
37.52
35.08
32.21
29.14
26.16
23.54
21.43
19.74
18.17
16.32
13.83
10.57
6.68
2.48
-1.61
-5.32
-8.63
-11.76
-15.01
-18.61
-22.54
-26.59
-30.41
-33.72
-36.4
-38.53
-40.36
-42.23
-44.59
-47.82
-52.14
-57.38
-62.86
-67.37
-69.42
-67.71
-61.58
-51.29
-37.96
-23.26
-8.81
4.14
14.97
23.64
30.47
35.91
40.37
44.15
47.4
50.11
52.18
53.45
53.75
53.03
51.41
49.11
46.49
43.88
41.6
39.81
38.55
37.64
36.78
35.63
33.88
31.41
28.27
24.67
20.84
17.02
13.32
9.8
6.45
3.26
0.22
-2.68
-5.47
-8.21
-10.99
-13.92
-17.1
-20.62
-24.44
-28.41
-32.31
-35.9
-39.1
-42.07
-45.22
-49.12
-54.22
-60.49
-67.27
-73.21
-76.66
-76.19
-71.11
-61.81
-49.56
-36.14
-23.23
-12.03
-3.06
3.69
8.56
12.01
14.46
16.28
17.79
19.16
20.44
21.58
22.44
22.92
23.01
22.77
22.34
21.9
21.58
21.48
21.63
21.99
22.41
22.75
22.83
22.52
21.71
20.39
18.51
16.05
13.03
9.5
5.62
1.68
-2.04
-5.3
-8.1
-10.63
-13.27
-16.33
-19.99
-24.13
-28.46
-32.62
-36.33
-39.53
-42.37
-45.14
-48.25
-52.03
-56.74
-62.32
-68.29
-73.66
-77.01
-76.86
-72.13
-62.6
-48.99
-32.83
-15.99
-0.18
13.44
24.39
32.77
39.02
43.71
47.37
50.4
53.09
55.58
57.81
59.62
60.8
61.16
60.61
59.23
57.21
54.91
52.66
50.78
49.37
48.31
47.28
45.84
43.62
40.45
36.4
31.76
26.89
22.03
17.25
12.46
7.46
2.16
-3.49
-9.36
-15.24
-20.88
-26.09
-30.77
-35.02
-39.12
-43.56
-48.82
-55.27
-62.89
-71.08
-78.63
-83.97
-85.54
-82.34
-74.28
-62.25
-47.88
-33.04
-19.3
-7.6
1.78
9.08
14.78
19.37
23.23
26.62
29.68
32.44
34.79
36.56
37.58
37.76
37.17
36.01
34.54
33.06
31.76
30.78
30.14
29.73
29.39
28.91
28.1
26.89
25.38
23.79
22.41
21.5
21.16
21.31
21.69
21.88
21.43
20.02
17.46
13.79
9.23
4.11
-1.22
-6.46
-11.43
-16.08
-20.49
-24.85
-29.47
-34.71
-40.8
-47.68
-54.7
-60.67
-63.98
-63.19
-57.5
-47.21
-33.7
-19.03
-5.22
6.33
15.13
21.43
25.87
29.07
31.39
33.03
34.09
34.66
34.83
34.65
34.12
33.2
31.86
30.17
28.26
26.33
24.55
23.03
21.77
20.64
19.48
18.04
16.19
13.82
10.95
7.69
4.18
0.55
-3.13
-6.85
-10.62
-14.49
-18.41
-22.3
-26.08
-29.74
-33.35
-37.08
-41.1
-45.45
-50.03
-54.65
-59.14
-63.42
-67.6
-71.85
-76.33
-81.05
-85.87
-90.39
-93.97
-95.8
-94.91
-90.45
-81.83
-69.03
-52.62
-33.79
-14.03
5.13
22.5
37.41
49.74
59.85
68.27
75.44
81.55
86.48
90.05
92.14
92.87
92.5
91.33
89.53
87.09
84.0
80.35
76.46
72.72
69.48
66.79
64.37
61.73
58.4
54.18
49.2
43.84
38.54
33.61
29.1
24.8
20.33
15.38
9.77
3.57
-2.92
-9.32
-15.3
-20.7
-25.62
-30.42
-35.64
-41.79
-49.16
-57.54
-66.13
-73.57
-78.29
-78.95
-74.87
-66.33
-54.52
-41.13
-27.86
-15.97
-6.05
1.88
8.16
13.19
17.23
20.42
22.8
24.48
25.6
26.34
26.79
26.97
26.85
26.43
25.83
25.21
24.72
24.43
24.28
24.13
23.74
22.9
21.44
19.25
16.34
12.87
9.08
5.3
1.69
-1.75
-5.25
-9.12
-13.51
-18.36
-23.3
-27.89
-31.8
-35.01
-37.87
-40.94
-44.87
-50.11
-56.76
-64.38
-72.03
-78.29
-81.59
-80.56
-74.57
-63.94
-49.94
-34.5
-19.53
-6.48
4.07
12.3
18.84
24.35
29.2
33.41
36.78
39.15
40.53
41.11
41.21
41.07
40.76
40.19
39.2
37.78
36.09
34.42
33.08
32.17
31.52
30.74
29.43
27.34
24.49
21.16
17.74
14.54
11.73
9.28
7.0
4.6
1.79
-1.7
-6.01
-11.12
-16.73
-22.42
-27.66
-32.05
-35.54
-38.43
-41.36
-45.07
-50.16
-56.81
-64.6
-72.44
-78.73
-81.76
-80.17
-73.45
-62.17
-47.81
-32.37
-17.73
-5.19
4.78
12.34
18.0
22.23
25.35
27.56
29.08
30.17
31.1
32.08
33.11
34.0
34.46
34.26
33.43
32.21
30.98
30.07
29.58
29.42
29.33
29.06
28.4
27.24
25.5
23.17
20.31
17.07
13.71
10.47
7.52
4.81
2.15
-0.74
-4.06
-7.83
-11.94
-16.18
-20.35
-24.25
-27.8
-30.9
-33.57
-35.94
-38.29
-41.02
-44.53
-48.99
-54.04
-58.82
-61.92
-61.87
-57.59
-48.83
-36.35
-21.67
-6.67
7.03
18.41
27.19
33.68
38.4
41.84
44.33
46.04
47.11
47.7
48.06
48.34
48.63
48.82
48.71
48.13
47.12
45.91
44.92
44.5
44.8
45.58
46.32
46.42
45.43
43.23
40.04
36.33
32.56
28.99
25.56
21.98
17.9
13.1
7.62
1.73
-4.14
-9.57
-14.39
-18.65
-22.69
-27.0
-32.07
-38.24
-45.56
-53.66
-61.68
-68.33
-72.12
-71.77
-66.62
-56.98
-44.11
-29.88
-16.2
-4.42
4.92
12.01
17.42
21.67
25.0
27.38
28.71
28.99
28.49
27.59
26.64
25.81
25.02
24.1
22.86
21.3
19.57
17.97
16.77
16.12
15.95
15.99
15.86
15.22
13.83
11.64
8.76
5.45
2.02
-1.24
-4.18
-6.82
-9.34
-12.01
-14.99
-18.29
-21.73
-25.06
-28.04
-30.62
-32.92
-35.23
-37.91
-41.32
-45.77
-51.39
-58.01
-64.97
-71.15
-75.08
-75.33
-70.99
-61.95
-49.06
-33.87
-18.2
-3.67
8.67
18.42
25.74
31.02
34.67
37.03
38.35
38.89
38.93
38.84
38.85
39.05
39.28
39.29
38.9
38.21
37.52
37.24
37.59
38.48
39.46
39.98
39.64
38.3
36.1
33.32
30.16
26.73
22.99
18.93
14.62
10.26
6.1
2.35
-0.91
-3.8
-6.55
-9.51
-12.92
-16.87
-21.23
-25.69
-29.91
-33.65
-36.92
-39.96
-43.18
-47.03
-51.89
-57.85
-64.64
-71.52
-77.3
-80.58
-80.12
-75.22
-66.03
-53.53
-39.29
-24.95
-11.87
-0.83
8.01
14.88
20.24
24.5
27.96
30.72
32.84
34.36
35.32
35.8
35.87
35.54
34.77
33.55
31.95
30.12
28.32
26.75
25.52
24.55
23.62
22.49
20.97
18.95
16.48
13.68
10.68
7.61
4.57
1.63
-1.17
-3.79
-6.16
-8.29
-10.24
-12.17
-14.27
-16.66
-19.39
-22.32
-25.22
-27.91
-30.31
-32.56
-34.96
-37.89
-41.65
-46.29
-51.5
-56.51
-60.21
-61.34
-58.84
-52.27
-41.94
-28.87
-14.55
-0.43
12.36
23.2
32.02
39.01
44.51
48.86
52.34
55.2
57.63
59.75
61.61
63.13
64.18
64.6
64.34
63.49
62.28
61.02
59.93
59.06
58.24
57.12
55.32
52.57
48.88
44.5
39.93
35.7
32.21
29.58
27.67
26.14
24.65
22.92
20.94
18.83
16.8
15.01
13.48
12.0
10.25
7.78
4.3
-0.2
-5.27
-9.98
-13.18
-13.87
-11.55
-6.48
0.43
7.95
14.92
20.63
24.86
27.74
29.47
30.22
30.02
28.91
27.02
24.6
21.95
19.25
16.48
13.37
9.58
4.85
-0.8
-7.12
-13.66
-20.03
-26.04
-31.81
-37.67
-43.98
-51.03
-58.84
-67.2
-75.72
-83.93
-91.41
-97.84
-103.1
-107.28
-110.65
-113.52
-116.1
-118.37
-120.1
-120.94
-120.65
-119.26
-117.17
-115.01
-113.53
-113.35
-114.85
-117.93
-121.98
-125.79
-127.66
-125.8
-118.82
-106.23
-88.75
-68.15
-46.74
-26.57
-8.98
5.68
17.73
27.78
36.27
43.38
49.04
53.26
56.23
58.31
59.9
61.26
62.41
63.21
63.49
63.24
62.61
61.83
61.11
60.47
59.77
58.78
57.34
55.4
53.03
50.34
47.32
43.92
40.05
35.67
30.83
25.64
20.26
14.82
9.42
4.1
-1.1
-6.19
-11.13
-15.89
-20.38
-24.49
-28.17
-31.47
-34.67
-38.23
-42.75
-48.71
-56.25
-64.91
-73.56
-80.52
-83.95
-82.36
-75.16
-62.91
-47.17
-30.03
-13.5
1.0
12.83
22.07
29.2
34.8
39.36
43.22
46.58
49.52
52.08
54.24
55.95
57.15
57.75
57.7
57.04
55.91
54.55
53.25
52.24
51.6
51.24
50.95
50.48
49.65
48.34
46.52
44.19
41.38
38.12
34.53
30.75
27.01
23.46
20.15
17.0
13.81
10.4
6.63
2.46
-1.99
-6.55
-11.0
-15.15
-18.96
-22.59
-26.41
-30.9
-36.5
-43.22
-50.47
-56.94
-60.85
-60.55
-55.05
-44.48
-30.09
-13.84
2.23
16.53
28.29
37.4
44.2
49.17
52.65
54.9
56.17
56.7
56.8
56.71
56.54
56.23
55.63
54.55
52.92
50.85
48.58
46.42
44.53
42.93
41.4
39.61
37.15
33.8
29.59
24.82
20.01
15.61
11.87
8.64
5.47
1.77
-2.86
-8.46
-14.67
-20.91
-26.67
-31.68
-36.02
-40.04
-44.14
-48.72
-54.12
-60.45
-67.54
-74.68
-80.64
-83.77
-82.53
-76.0
-64.4
-49.11
-32.3
-16.17
-2.33
8.57
16.77
22.96
27.91
32.13
35.88
39.22
42.15
44.68
46.79
48.35
49.21
49.18
48.22
46.5
44.4
42.34
40.65
39.49
38.75
38.19
37.52
36.53
35.13
33.38
31.35
29.14
26.81
24.36
21.75
18.89
15.69
12.11
8.18
4.05
-0.16
-4.41
-8.79
-13.44
-18.42
-23.58
-28.57
-33.0
-36.61
-39.49
-42.03
-44.86
-48.54
-53.37
-59.24
-65.46
-70.87
-74.02
-73.44
-68.14
-58.04
-44.08
-28.12
-12.38
1.26
11.75
19.06
23.9
27.26
29.93
32.3
34.39
36.05
37.23
38.0
38.54
38.92
39.07
38.76
37.77
36.1
33.98
31.89
30.26
29.36
29.08
29.08
28.89
28.11
26.59
24.39
21.79
19.11
16.63
14.45
12.55
10.74
8.78
6.46
3.75
0.76
-2.21
-4.9
-7.16
-9.04
-10.81
-12.81
-15.37
-18.61
-22.42
-26.5
-30.45
-33.9
-36.71
-38.99
-41.08
-43.45
-46.57
-50.79
-56.12
-62.16
-67.98
-72.21
-73.38
-70.34
-62.74
-51.26
-37.46
-23.27
-10.42
0.06
7.97
13.71
17.92
21.12
23.61
25.5
26.91
27.99
28.9
29.76
30.5
30.89
30.62
29.47
27.45
24.85
22.15
19.9
18.46
17.89
17.91
18.03
17.72
16.59
14.6
12.02
9.34
6.98
5.19
3.9
2.85
1.72
0.3
-1.46
-3.46
-5.55
-7.57
-9.47
-11.25
-12.98
-14.75
-16.61
-18.61
-20.76
-23.01
-25.28
-27.46
-29.43
-31.12
-32.6
-34.08
-35.95
-38.65
-42.41
-47.02
-51.64
-54.94
-55.51
-52.26
-44.94
-34.19
-21.41
-8.28
3.74
13.72
21.43
27.16
31.38
34.59
37.06
38.9
40.15
40.91
41.34
41.61
41.79
41.84
41.58
40.83
39.52
37.79
35.9
34.18
32.86
31.95
31.26
30.44
29.15
27.17
24.5
21.31
17.89
14.49
11.18
7.84
4.18
-0.07
-5.01
-10.48
-16.08
-21.33
-25.89
-29.71
-33.02
-36.27
-39.94
-44.44
-50.01
-56.56
-63.61
-70.25
-75.18
-77.03
-74.72
-67.88
-57.11
-43.82
-29.84
-16.85
-5.9
2.69
9.25
14.38
18.61
22.16
25.02
27.02
28.12
28.43
28.26
27.86
27.38
26.8
26.01
25.02
23.96
23.07
22.6
22.58
22.82
22.91
22.38
20.87
18.32
14.91
11.06
7.22
3.72
0.65
-2.15
-5.03
-8.35
-12.28
-16.75
-21.49
-26.11
-30.3
-33.97
-37.26
-40.55
-44.34
-49.08
-55.06
-62.13
-69.63
-76.4
-81.01
-82.12
-78.93
-71.37
-60.23
-46.85
-32.76
-19.31
-7.44
2.32
9.76
14.87
17.79
18.79
18.32
17.02
15.54
14.36
13.56
12.76
11.14
7.76
1.93
-6.45
-16.62
-27.14
-36.14
-41.89
-43.27
-40.14
-33.37
-24.51
-15.25
-6.74
0.64
7.53
15.26
25.31
38.63
54.97
72.71
89.19
101.66
108.14
108.12
102.67
93.96
84.26
75.18
67.36
60.75
55.05
49.77
44.12
36.99
27.09
13.48
-3.76
-22.75
-39.64
-49.58
-48.93
-36.99
-16.51
7.2
27.73
39.32
38.35
24.26
-0.35
-30.79
-61.15
-84.58
-93.92
-83.66
-52.26
-3.38
54.61
110.65
153.36
173.72
167.64
136.87
87.36
26.67
-37.82
-99.5
-148.86
-173.69
-167.28
-134.21
-86.82
-37.86
3.48
32.34
48.28
53.97
51.82
43.97
32.81
21.46
12.91
8.75
9.06
12.79
18.1
22.59
23.8
20.16
11.47
-1.41
-17.46
-35.66
-54.83
-73.47
-89.96
-102.7
-110.06
-110.5
-103.01
-87.76
-66.16
-40.55
-13.67
11.82
33.85
51.39
64.63
74.69
82.89
90.29
97.5
104.76
112.25
120.15
128.61
137.5
146.21
153.71
158.91
161.03
159.89
155.92
150.03
143.45
137.47
133.15
131.02
130.66
130.83
129.9
126.7
121.25
114.94
110.01
108.57
111.79
119.51
130.51
143.02
155.37
166.32
175.07
181.06
183.64
181.96
174.89
161.37
140.8
113.34
80.06
42.93
4.53
-32.29
-64.85
-91.26
-110.64
-123.39
-130.99
-135.6
-139.69
-145.64
-155.52
-170.99
-193.03
-221.59
-255.18
-290.72
-324.16
-351.69
-371.01
-382.01
-386.4
-386.26
-382.54
-374.43
-359.79
-336.63
-304.51
-265.13
-221.7
-177.52
-134.67
-93.56
-53.42
-13.42
26.31
64.16
97.21
121.63
133.46
129.19
106.5
65.0
6.73
-63.7
-139.7
-213.71
-278.74
-329.57
-363.63
-380.92
-383.29
-373.4
-353.78
-326.48
-293.21
-255.65
-215.72
-175.42
-136.44
-99.85
-66.04
-35.03
-6.94
17.79
38.39
54.15
64.82
70.88
73.58
74.68
76.08
79.36
85.57
95.17
108.23
124.46
143.03
162.28
179.58
191.75
195.91
190.58
176.44
155.98
132.63
109.39
87.91
68.43
50.42
33.3
16.86
1.07
-14.23
-29.33
-44.35
-58.67
-70.69
-78.17
-79.11
-72.6
-59.26
-41.0
-20.3
0.57
20.13
37.73
53.33
67.15
79.41
90.26
99.72
107.77
114.35
119.39
122.86
124.85
125.57
125.38
124.61
123.47
121.98
120.02
117.37
113.87
109.44
104.16
98.21
91.84
85.26
78.6
71.85
64.96
57.78
50.24
42.38
34.37
26.44
18.85
11.76
5.14
-1.29
-7.96
-15.36
-23.74
-32.93
-42.18
-50.19
-55.38
-56.35
-52.28
-43.24
-30.23
-14.9
0.97
15.87
28.93
39.87
48.87
56.26
62.27
66.99
70.39
72.48
73.34
73.14
72.07
70.32
68.11
65.61
63.02
60.45
57.95
55.43
52.75
49.79
46.49
42.88
39.07
35.11
31.04
26.82
22.37
17.63
12.65
7.56
2.54
-2.23
-6.68
-10.93
-15.31
-20.23
-26.12
-33.2
-41.3
-49.68
-57.13
-62.12
-63.25
-59.7
-51.46
-39.4
-25.03
-10.01
4.22
16.78
27.33
35.91
42.7
47.86
51.55
53.85
54.95
55.03
54.33
53.05
51.38
49.44
47.36
45.2
43.0
40.77
38.48
36.07
33.57
30.96
28.24
25.32
22.06
18.31
14.02
9.23
4.09
-1.19
-6.45
-11.61
-16.63
-21.47
-26.08
-30.42
-34.52
-38.64
-43.15
-48.47
-54.74
-61.58
-67.97
-72.43
-73.43
-69.92
-61.7
-49.54
-34.92
-19.61
-5.13
7.48
17.78
25.81
31.83
36.17
39.15
41.01
41.93
42.02
41.37
40.03
38.1
35.69
32.97
30.13
27.43
25.06
23.18
21.79
20.77
19.92
18.93
17.57
15.66
13.21
10.33
7.16
3.81
0.27
-3.53
-7.67
-12.13
-16.78
-21.4
-25.77
-29.83
-33.74
-37.84
-42.53
-48.09
-54.42
-60.91
-66.5
-69.83
-69.63
-65.11
-56.28
-43.96
-29.63
-14.99
-1.46
10.05
19.3
26.48
32.03
36.31
39.57
41.93
43.48
44.31
44.51
44.12
43.14
41.58
39.46
36.95
34.35
31.97
30.07
28.76
27.92
27.24
26.33
24.81
22.45
19.18
15.19
10.84
6.52
2.57
-0.92
-4.12
-7.34
-10.96
-15.16
-19.9
-24.94
-29.9
-34.44
-38.34
-41.61
-44.42
-47.16
-50.31
-54.33
-59.43
-65.38
-71.34
-75.95
-77.69
-75.32
-68.36
-57.2
-43.03
-27.46
-12.12
1.71
13.24
22.13
28.5
32.73
35.35
36.86
37.65
37.95
37.83
37.29
36.35
35.08
33.59
31.96
30.32
28.73
27.3
26.1
25.16
24.44
23.8
23.0
21.84
20.15
17.85
14.98
11.69
8.21
4.78
1.59
-1.26
-3.84
-6.36
-9.05
-12.12
-15.66
-19.62
-23.84
-28.07
-32.07
-35.67
-38.76
-41.37
-43.71
-46.14
-49.15
-53.16
-58.3
-64.14
-69.62
-73.25
-73.52
-69.38
-60.67
-48.17
-33.4
-18.14
-3.93
8.2
17.86
25.16
30.41
34.02
36.35
37.65
38.18
38.15
37.75
37.11
36.24
35.09
33.55
31.64
29.5
27.4
25.61
24.34
23.56
23.08
22.6
21.85
20.6
18.78
16.39
13.5
10.24
6.79
3.33
-0.01
-3.22
-6.43
-9.87
-13.7
-17.98
-22.54
-27.05
-31.19
-34.71
-37.65
-40.3
-43.11
-46.6
-51.08
-56.58
-62.68
-68.52
-72.9
-74.52
-72.37
-65.95
-55.6
-42.35
-27.72
-13.24
-0.16
10.78
19.34
25.62
29.91
32.54
33.85
34.17
33.82
33.03
31.95
30.65
29.16
27.49
25.69
23.88
22.22
20.88
19.95
19.36
18.91
18.3
17.22
15.48
13.1
10.3
7.34
4.41
1.45
-1.74
-5.44
-9.76
-14.6
-19.64
-24.49
-28.88
-32.75
-36.29
-39.81
-43.72
-48.34
-53.85
-60.13
-66.66
-72.4
-75.98
-76.01
-71.56
-62.56
-49.85
-35.04
-19.91
-5.96
5.95
15.58
23.14
28.97
33.35
36.44
38.34
39.2
39.29
38.92
38.32
37.61
36.77
35.67
34.3
32.76
31.33
30.31
29.84
29.75
29.64
28.97
27.35
24.68
21.26
17.58
14.13
11.17
8.57
5.96
2.83
-1.15
-6.01
-11.49
-17.12
-22.4
-26.99
-30.83
-34.11
-37.22
-40.65
-44.88
-50.21
-56.57
-63.27
-69.03
-72.21
-71.22
-65.19
-54.26
-39.65
-23.23
-6.97
7.61
19.72
29.23
36.46
41.81
45.66
48.26
49.84
50.6
50.73
50.4
49.71
48.64
47.16
45.25
43.0
40.63
38.41
36.63
35.42
34.72
34.24
33.59
32.35
30.26
27.21
23.32
18.82
14.09
9.49
5.26
1.51
-1.93
-5.38
-9.16
-13.53
-18.46
-23.68
-28.8
-33.43
-37.38
-40.74
-43.8
-46.98
-50.73
-55.38
-61.03
-67.39
-73.6
-78.39
-80.21
-77.71
-70.27
-58.21
-42.82
-25.97
-9.55
4.99
16.93
26.2
33.15
38.28
41.99
44.6
46.34
47.44
48.15
48.68
49.15
49.52
49.63
49.29
48.45
47.18
45.74
44.42
43.44
42.82
42.39
41.85
40.92
39.42
37.37
34.86
32.03
28.97
25.69
22.17
18.46
14.65
10.86
7.2
3.63
0.04
-3.81
-8.04
-12.63
-17.38
-21.96
-26.11
-29.74
-33.01
-36.3
-40.11
-44.81
-50.51
-56.87
-63.01
-67.65
-69.32
-66.82
-59.62
-48.09
-33.42
-17.37
-1.72
12.13
23.33
31.68
37.4
41.0
43.0
43.91
44.09
43.72
42.9
41.64
39.98
38.02
35.88
33.7
31.56
29.51
27.63
26.02
24.76
23.81
23.0
21.98
20.39
17.97
14.7
10.79
6.63
2.58
-1.09
-4.36
-7.43
-10.59
-14.14
-18.22
-22.81
-27.67
-32.46
-36.89
-40.78
-44.19
-47.41
-50.87
-55.02
-60.06
-65.77
-71.37
-75.6
-77.02
-74.48
-67.47
-56.38
-42.38
-27.0
-11.75
2.17
14.07
23.63
30.86
36.03
39.55
41.91
43.58
44.89
45.88
46.43
46.3
45.32
43.5
40.99
38.07
35.11
32.42
30.32
28.98
28.32
28.07
27.78
26.94
25.2
22.42
18.75
14.47
9.91
5.39
1.14
-2.72
-6.19
-9.42
-12.66
-16.17
-20.1
-24.35
-28.64
-32.55
-35.78
-38.29
-40.36
-42.54
-45.45
-49.58
-55.04
-61.37
-67.6
-72.33
-74.06
-71.63
-64.6
-53.37
-39.19
-23.76
-8.8
4.38
15.1
23.36
29.55
34.23
37.84
40.65
42.78
44.28
45.19
45.54
45.35
44.66
43.5
42.02
40.41
38.92
37.72
36.86
36.27
35.78
35.18
34.29
32.95
31.11
28.75
25.97
22.9
19.67
16.34
12.89
9.29
5.57
1.81
-1.84
-5.3
-8.59
-11.87
-15.36
-19.17
-23.29
-27.51
-31.54
-35.15
-38.25
-40.9
-43.35
-45.97
-49.19
-53.41
-58.78
-64.96
-70.98
-75.34
-76.33
-72.61
-63.74
-50.44
-34.36
-17.61
-2.06
11.15
21.7
29.87
36.19
41.12
44.96
47.87
49.99
51.47
52.4
52.78
52.49
51.44
49.61
47.21
44.63
42.3
40.52
39.4
38.73
38.15
37.29
35.84
33.74
31.09
28.11
24.98
21.79
18.51
15.03
11.26
7.19
2.87
-1.53
-5.84
-9.93
-13.77
-17.44
-21.09
-24.88
-28.85
-32.93
-36.93
-40.65
-43.93
-46.83
-49.59
-52.57
-56.14
-60.6
-65.93
-71.75
-77.21
-81.1
-82.07
-78.99
-71.36
-59.5
-44.53
-28.12
-12.01
2.41
14.36
23.71
30.74
35.94
39.67
42.19
43.64
44.12
43.8
42.95
41.78
40.48
39.08
37.52
35.8
34.01
32.4
31.28
30.84
31.05
31.57
31.86
31.37
29.8
27.14
23.71
19.96
16.25
12.73
9.32
5.8
1.96
-2.27
-6.81
-11.54
-16.27
-20.86
-25.23
-29.3
-33.06
-36.63
-40.26
-44.39
-49.4
-55.44
-62.12
-68.41
-72.87
-73.96
-70.6
-62.53
-50.42
-35.67
-20.02
-5.1
7.94
18.52
26.62
32.6
36.95
40.13
42.44
44.05
45.02
45.38
45.19
44.52
43.44
42.01
40.31
38.48
36.76
35.37
34.44
33.94
33.68
33.35
32.68
31.53
29.89
27.78
25.21
22.17
18.63
14.68
10.54
6.44
2.65
-0.74
-3.79
-6.71
-9.76
-13.17
-17.07
-21.45
-26.13
-30.86
-35.37
-39.46
-43.13
-46.6
-50.26
-54.54
-59.71
-65.66
-71.81
-77.01
-79.83
-78.89
-73.35
-63.28
-49.67
-34.22
-18.78
-4.83
6.82
16.11
23.37
29.11
33.7
37.35
40.15
42.18
43.56
44.38
44.69
44.44
43.6
42.17
40.33
38.4
36.74
35.66
35.3
35.59
36.23
36.75
36.68
35.62
33.45
30.35
26.75
23.18
20.04
17.46
15.24
13.0
10.39
7.27
3.73
0.07
-3.4
-6.47
-9.09
-11.41
-13.69
-16.2
-19.2
-22.79
-26.88
-31.2
-35.37
-39.07
-42.16
-44.77
-47.29
-50.25
-54.07
-58.87
-64.3
-69.49
-73.2
-74.09
-71.14
-63.98
-53.01
-39.36
-24.58
-10.18
2.67
13.34
21.69
27.94
32.49
35.73
38.02
39.62
40.72
41.47
41.92
42.08
41.87
41.24
40.18
38.87
37.56
36.59
36.19
36.37
36.91
37.41
37.42
36.64
35.01
32.68
29.97
27.18
24.54
22.1
19.76
17.34
14.67
11.68
8.44
5.14
1.96
-0.99
-3.76
-6.55
-9.6
-13.11
-17.12
-21.48
-25.9
-30.08
-33.75
-36.85
-39.55
-42.2
-45.33
-49.4
-54.64
-60.78
-66.98
-71.97
-74.27
-72.71
-66.83
-56.98
-44.33
-30.41
-16.73
-4.39
6.02
14.4
20.91
25.83
29.45
32.04
33.85
35.05
35.74
35.92
35.57
34.64
33.18
31.27
29.1
26.84
24.68
22.79
21.28
20.15
19.26
18.34
17.07
15.22
12.72
9.73
6.54
3.46
0.73
-1.65
-3.82
-6.06
-8.66
-11.81
-15.5
-19.55
-23.61
-27.28
-30.32
-32.72
-34.74
-36.87
-39.63
-43.44
-48.38
-54.18
-60.1
-65.08
-67.92
-67.44
-62.93
-54.31
-42.28
-28.18
-13.67
-0.25
11.09
20.04
26.84
32.0
35.98
39.01
41.1
42.22
42.47
42.05
41.24
40.23
39.1
37.81
36.31
34.63
32.94
31.44
30.31
29.58
29.16
28.79
28.19
27.08
25.27
22.72
19.54
15.95
12.24
8.68
5.4
2.39
-0.51
-3.55
-6.93
-10.79
-15.08
-19.62
-24.09
-28.24
-31.87
-35.01
-37.88
-40.89
-44.52
-49.23
-55.19
-62.12
-69.13
-74.79
-77.45
-75.78
-69.23
-58.26
-44.19
-28.81
-13.79
-0.3
11.11
20.44
27.92
33.9
38.67
42.5
45.62
48.17
50.2
51.67
52.49
52.6
52.05
50.97
49.58
48.11
46.78
45.74
45.03
44.55
44.06
43.25
41.82
39.66
36.86
33.7
30.52
27.56
24.84
22.17
19.25
15.89
12.09
8.15
4.47
1.37
-1.11
-3.24
-5.55
-8.52
-12.42
-17.14
-22.32
-27.44
-32.14
-36.27
-39.99
-43.68
-47.76
-52.65
-58.55
-65.32
-72.34
-78.47
-82.25
-82.23
-77.45
-67.84
-54.33
-38.58
-22.54
-7.85
4.56
14.51
22.38
28.79
34.24
38.98
43.03
46.33
48.83
50.55
51.57
51.96
51.73
50.88
49.49
47.8
46.17
44.98
44.49
44.69
45.29
45.77
45.66
44.68
42.82
40.33
37.58
34.9
32.39
29.97
27.38
24.39
20.85
16.79
12.39
7.92
3.64
-0.28
-3.81
-7.09
-10.31
-13.7
-17.37
-21.32
-25.36
-29.24
-32.76
-35.73
-38.16
-40.2
-42.15
-44.47
-47.65
-52.06
-57.73
-64.08
-69.94
-73.78
-74.08
-69.88
-61.12
-48.65
-34.02
-18.95
-4.96
7.03
16.61
23.89
29.2
32.98
35.67
37.61
39.04
40.01
40.54
40.55
40.06
39.14
37.96
36.7
35.54
34.58
33.88
33.43
33.12
32.82
32.32
31.39
29.87
27.66
24.76
21.27
17.35
13.17
8.93
4.85
1.12
-2.11
-4.83
-7.23
-9.63
-12.36
-15.63
-19.42
-23.43
-27.34
-30.83
-33.86
-36.65
-39.56
-43.01
-47.27
-52.38
-58.04
-63.53
-67.82
-69.71
-68.1
-62.42
-52.81
-40.2
-26.06
-11.97
0.8
11.53
20.08
26.7
31.81
35.77
38.84
41.17
42.88
44.03
44.66
44.78
44.35
43.37
41.91
40.09
38.12
36.21
34.55
33.2
32.15
31.28
30.41
29.31
27.78
25.65
22.9
19.58
15.9
12.03
8.14
4.31
0.6
-2.93
-6.2
-9.2
-11.97
-14.69
-17.56
-20.76
-24.33
-28.12
-31.88
-35.3
-38.24
-40.72
-43.03
-45.65
-49.08
-53.67
-59.35
-65.48
-70.9
-74.11
-73.73
-68.95
-59.84
-47.33
-33.0
-18.53
-5.3
5.9
14.87
21.84
27.19
31.27
34.36
36.66
38.36
39.6
40.44
40.87
40.79
40.13
38.92
37.3
35.53
33.9
32.66
31.91
31.59
31.5
31.33
30.81
29.78
28.21
26.22
23.94
21.49
18.96
16.37
13.72
10.98
8.14
5.17
2.1
-1.01
-4.03
-6.88
-9.49
-11.95
-14.43
-17.17
-20.33
-23.95
-27.89
-31.89
-35.71
-39.22
-42.44
-45.54
-48.82
-52.62
-57.21
-62.66
-68.66
-74.45
-78.82
-80.42
-78.12
-71.44
-60.75
-47.26
-32.58
-18.32
-5.62
4.96
13.39
19.96
25.1
29.18
32.51
35.31
37.67
39.62
41.08
41.94
42.09
41.54
40.42
39.0
37.63
36.59
36.05
35.98
36.18
36.34
36.16
35.39
33.93
31.83
29.22
26.33
23.38
20.57
17.96
15.44
12.75
9.62
5.93
1.77
-2.54
-6.6
-10.19
-13.32
-16.25
-19.26
-22.53
-25.93
-29.17
-31.93
-34.05
-35.6
-36.89
-38.29
-40.18
-42.84
-46.44
-51.02
-56.33
-61.83
-66.55
-69.24
-68.68
-63.97
-54.96
-42.32
-27.43
-11.98
2.44
14.78
24.64
32.22
38.04
42.63
46.27
49.01
50.7
51.25
50.73
49.41
47.64
45.72
43.76
41.71
39.47
37.07
34.68
32.58
31.0
29.89
28.96
27.78
25.95
23.32
20.0
16.3
12.57
9.01
5.61
2.19
-1.49
-5.58
-10.09
-14.85
-19.6
-24.1
-28.23
-31.99
-35.58
-39.24
-43.31
-48.05
-53.64
-59.97
-66.53
-72.36
-76.1
-76.38
-72.18
-63.34
-50.6
-35.5
-19.83
-5.17
7.55
18.05
26.53
33.3
38.59
42.42
44.76
45.68
45.42
44.35
42.81
41.03
39.09
36.98
34.76
32.6
30.78
29.54
29.0
29.05
29.44
29.82
29.88
29.45
28.48
27.0
25.11
22.94
20.62
18.31
16.16
14.24
12.47
10.61
8.34
5.37
1.57
-2.95
-7.88
-12.83
-17.48
-21.72
-25.68
-29.65
-34.02
-39.16
-45.28
-52.34
-59.87
-66.91
-72.08
-73.9
-71.23
-63.73
-52.0
-37.5
-22.03
-7.24
5.76
16.56
25.21
32.02
37.27
41.19
44.01
45.98
47.4
48.42
49.1
49.32
48.92
47.81
46.12
44.13
42.18
40.56
39.4
38.64
38.13
37.61
36.81
35.53
33.64
31.14
28.2
25.08
22.03
19.21
16.58
13.99
11.2
8.03
4.45
0.52
-3.55
-7.6
-11.51
-15.28
-19.01
-22.84
-26.84
-30.97
-35.09
-39.01
-42.58
-45.75
-48.63
-51.51
-54.76
-58.83
-63.96
-69.98
-76.16
-81.25
-83.72
-82.24
-76.1
-65.48
-51.45
-35.59
-19.64
-5.0
7.49
17.54
25.37
31.4
36.1
39.84
42.83
45.12
46.67
47.43
47.4
46.69
45.51
44.12
42.81
41.82
41.28
41.23
41.55
42.07
42.51
42.64
42.21
41.13
39.38
37.06
34.35
31.5
28.73
26.2
23.96
21.93
19.91
17.64
14.93
11.73
8.12
4.37
0.78
-2.44
-5.23
-7.72
-10.18
-12.9
-16.11
-19.9
-24.14
-28.58
-32.88
-36.81
-40.26
-43.35
-46.35
-49.64
-53.62
-58.58
-64.57
-71.17
-77.4
-81.88
-83.08
-79.85
-71.88
-59.84
-45.23
-29.89
-15.44
-2.91
7.38
15.57
22.07
27.22
31.29
34.5
37.03
39.13
40.97
42.6
43.91
44.63
44.55
43.61
42.01
40.15
38.51
37.39
36.86
36.72
36.6
36.15
35.15
33.54
31.39
28.77
25.73
22.26
18.35
14.06
9.57
5.12
0.96
-2.83
-6.32
-9.78
-13.48
-17.61
-22.13
-26.78
-31.25
-35.32
-38.93
-42.27
-45.62
-49.26
-53.45
-58.32
-63.78
-69.46
-74.52
-77.76
-77.85
-73.76
-65.18
-52.75
-37.84
-22.2
-7.41
5.46
15.9
23.93
29.85
34.05
36.96
38.95
40.3
41.21
41.79
42.06
41.98
41.52
40.68
39.48
38.05
36.6
35.38
34.56
34.2
34.13
34.02
33.47
32.14
29.87
26.68
22.76
18.39
13.86
9.48
5.43
1.81
-1.47
-4.64
-8.0
-11.77
-15.99
-20.52
-25.06
-29.34
-33.16
-36.56
-39.83
-43.39
-47.75
-53.25
-59.87
-67.07
-73.76
-78.51
-79.83
-76.73
-68.97
-57.18
-42.73
-27.24
-12.22
1.28
12.72
22.03
29.37
35.06
39.41
42.77
45.48
47.77
49.75
51.34
52.32
52.49
51.77
50.32
48.48
46.72
45.42
44.77
44.68
44.83
44.76
44.01
42.25
39.36
35.48
30.96
26.25
21.69
17.44
13.38
9.22
4.68
-0.31
-5.57
-10.71
-15.34
-19.3
-22.8
-26.22
-30.05
-34.55
-39.69
-45.19
-50.67
-55.86
-60.69
-65.29
-69.93
-74.92
-80.58
-87.17
-94.75
-102.97
-110.96
-117.37
-120.68
-119.62
-113.67
-103.26
-89.75
-74.96
-60.71
-48.33
-38.46
-31.13
-25.93
-22.31
-19.72
-17.72
-16.04
-14.53
-13.19
-12.11
-11.46
-11.34
-11.8
-12.69
-13.74
-14.53
-14.59
-13.51
-11.05
-7.19
-2.17
3.63
9.84
16.2
22.62
29.12
35.75
42.41
48.88
54.84
59.99
64.16
67.31
69.46
70.69
71.03
70.56
69.37
67.61
65.41
62.82
59.69
55.78
50.87
44.9
38.05
30.7
23.29
16.06
9.07
2.12
-5.05
-12.65
-20.79
-29.41
-38.34
-47.2
-55.35
-61.7
-64.99
-64.02
-58.18
-47.76
-33.94
-18.39
-2.78
11.77
24.77
36.28
46.53
55.65
63.64
70.42
75.96
80.48
84.25
87.57
90.55
93.08
94.96
96.02
96.25
95.87
95.23
94.66
94.29
94.05
93.62
92.73
91.16
88.89
86.07
82.86
79.4
75.74
71.87
67.8
63.53
59.07
54.4
49.4
43.97
38.06
31.78
25.41
19.23
13.41
7.83
2.04
-4.52
-12.37
-21.82
-32.81
-44.98
-57.62
-69.69
-79.95
-87.09
-90.0
-88.17
-81.84
-72.0
-60.15
-47.86
-36.43
-26.61
-18.68
-12.51
-7.85
-4.44
-2.05
-0.52
0.3
0.57
0.39
-0.15
-1.05
-2.3
-3.85
-5.5
-7.02
-8.13
-8.65
-8.58
-8.14
-7.64
-7.45
-7.79
-8.76
-10.32
-12.34
-14.74
-17.48
-20.55
-23.93
-27.51
-31.13
-34.55
-37.59
-40.22
-42.55
-44.83
-47.4
-50.56
-54.55
-59.38
-64.69
-69.75
-73.49
-74.71
-72.44
-66.25
-56.41
-43.87
-30.0
-16.22
-3.65
7.04
15.7
22.54
27.91
32.1
35.26
37.36
38.38
38.36
37.56
36.34
35.06
33.96
33.14
32.56
32.15
31.9
31.77
31.73
31.66
31.33
30.46
28.74
25.91
21.88
16.67
10.47
3.63
-3.48
-10.47
-17.09
-23.28
-29.18
-35.12
-41.47
-48.53
-56.27
-64.26
-71.62
-77.17
-79.71
-78.34
-72.74
-63.26
-50.93
-37.11
-23.25
-10.5
0.44
9.31
16.17
21.25
24.82
27.11
28.35
28.76
28.56
27.91
26.96
25.82
24.62
23.57
22.88
22.71
23.03
23.56
23.93
23.74
22.74
20.88
18.28
15.1
11.51
7.58
3.39
-0.95
-5.33
-9.58
-13.56
-17.23
-20.6
-23.79
-26.92
-30.26
-34.05
-38.55
-43.82
-49.55
-54.94
-58.77
-59.67
-56.59
-49.18
-37.95
-24.19
-9.56
4.4
16.55
26.39
33.92
39.45
43.39
46.07
47.74
48.58
48.76
48.44
47.83
47.09
46.27
45.32
44.08
42.47
40.56
38.62
36.99
35.97
35.62
35.66
35.56
34.71
32.64
29.25
24.8
19.77
14.75
10.13
6.05
2.4
-1.21
-5.16
-9.74
-15.01
-20.77
-26.64
-32.19
-37.15
-41.46
-45.3
-49.09
-53.3
-58.38
-64.57
-71.76
-79.32
-86.15
-90.74
-91.64
-87.8
-79.04
-66.15
-50.71
-34.64
-19.64
-6.79
3.57
11.66
18.03
23.19
27.49
31.09
34.02
36.31
37.98
39.15
39.92
40.34
40.48
40.38
40.12
39.88
39.79
39.99
40.42
40.92
41.2
41.01
40.2
38.77
36.84
34.54
31.93
28.99
25.68
22.01
18.1
14.18
10.48
7.13
4.08
1.15
-1.89
-5.2
-8.76
-12.44
-16.0
-19.3
-22.28
-25.08
-28.0
-31.39
-35.6
-40.83
-46.95
-53.34
-58.91
-62.27
-62.07
-57.48
-48.49
-35.99
-21.55
-6.88
6.51
17.7
26.39
32.75
37.22
40.24
42.21
43.41
44.05
44.26
44.12
43.69
42.99
42.06
40.95
39.74
38.52
37.34
36.22
35.16
34.11
32.99
31.67
30.06
28.06
25.65
22.89
19.89
16.77
13.6
10.42
7.22
4.05
0.94
-2.03
-4.82
-7.47
-10.09
-12.82
-15.77
-18.98
-22.38
-25.86
-29.25
-32.45
-35.44
-38.37
-41.52
-45.23
-49.72
-54.88
-60.14
-64.48
-66.65
-65.53
-60.51
-51.7
-39.93
-26.56
-13.09
-0.81
9.44
17.3
22.85
26.42
28.48
29.48
29.83
29.84
29.74
29.64
29.56
29.42
29.11
28.5
27.54
26.31
25.01
23.85
22.95
22.32
21.75
20.97
19.78
18.1
15.99
13.6
11.09
8.5
5.82
3.0
0.05
-3.05
-6.25
-9.55
-12.94
-16.39
-19.84
-23.2
-26.41
-29.45
-32.38
-35.23
-37.99
-40.55
-42.75
-44.53
-46.05
-47.68
-49.84
-52.76
-56.2
-59.33
-60.95
-59.79
-54.97
-46.35
-34.56
-20.9
-6.89
6.06
16.99
25.47
31.54
35.53
37.86
38.95
39.15
38.7
37.83
36.72
35.48
34.22
32.96
31.74
30.59
29.55
28.65
27.89
27.23
26.58
25.82
24.82
23.47
21.72
19.55
17.02
14.26
11.37
8.44
5.51
2.53
-0.54
-3.73
-6.98
-10.21
-13.34
-16.33
-19.21
-22.1
-25.09
-28.25
-31.5
-34.69
-37.64
-40.19
-42.35
-44.3
-46.43
-49.15
-52.8
-57.37
-62.41
-67.01
-69.93
-69.98
-66.34
-58.88
-48.17
-35.43
-22.07
-9.45
1.49
10.3
16.96
21.74
25.09
27.44
29.12
30.32
31.12
31.57
31.72
31.66
31.54
31.48
31.56
31.78
32.08
32.35
32.49
32.39
31.94
31.05
29.68
27.87
25.71
23.33
20.81
18.17
15.4
12.47
9.42
6.3
3.15
-0.01
-3.25
-6.65
-10.25
-14.01
-17.82
-21.58
-25.21
-28.72
-32.15
-35.6
-39.21
-43.16
-47.61
-52.68
-58.29
-63.96
-68.84
-71.77
-71.61
-67.62
-59.73
-48.64
-35.61
-22.1
-9.39
1.67
10.71
17.75
23.0
26.75
29.29
30.9
31.9
32.52
32.94
33.22
33.33
33.21
32.78
32.06
31.14
30.2
29.39
28.87
28.66
28.61
28.4
27.69
26.16
23.69
20.38
16.49
12.37
8.31
4.45
0.74
-2.96
-6.83
-10.98
-15.34
-19.75
-23.95
-27.75
-31.05
-33.93
-36.64
-39.52
-42.9
-47.03
-51.91
-57.22
-62.2
-65.71
-66.47
-63.42
-56.14
-45.03
-31.28
-16.51
-2.32
10.07
20.07
27.71
33.37
37.58
40.77
43.2
44.89
45.82
45.96
45.37
44.23
42.81
41.33
39.97
38.84
37.99
37.49
37.37
37.57
37.92
38.11
37.78
36.7
34.82
32.29
29.45
26.6
23.94
21.46
19.02
16.39
13.46
10.25
6.94
3.77
0.87
-1.78
-4.37
-7.2
-10.51
-14.39
-18.7
-23.19
-27.55
-31.55
-35.11
-38.35
-41.52
-44.99
-49.14
