BVP
-8.27
-9.52
-10.68
-11.91
-13.39
-15.25
-17.57
-20.39
-23.6
-26.87
-29.63
-31.18
-30.86
-28.42
-24.08
-18.51
-12.63
-7.16
-2.52
1.26
4.36
7.01
9.26
11.02
12.16
12.65
12.59
12.23
11.87
11.77
12.01
12.51
13.06
13.43
13.44
13.03
12.31
11.44
10.63
9.96
9.41
8.87
8.19
7.25
6.08
4.79
3.55
2.54
1.87
1.56
1.58
1.87
2.32
2.9
3.56
4.3
5.1
5.97
7.04
8.63
11.25
15.5
21.88
30.5
40.92
52.21
63.26
73.26
81.99
89.97
98.2
107.54
118.13
129.11
138.91
145.76
148.22
145.39
136.82
122.4
102.41
77.83
50.56
23.19
-1.66
-22.35
-38.88
-52.84
-66.5
-81.58
-98.19
-114.76
-128.68
-137.59
-140.25
-136.98
-129.22
-118.87
-107.49
-95.93
-84.32
-72.59
-60.82
-49.5
-39.25
-30.51
-23.1
-16.19
-8.54
0.93
12.76
26.77
42.36
58.85
75.74
92.59
108.58
122.06
130.57
131.34
122.36
103.22
75.54
42.47
7.67
-25.88
-56.45
-83.55
-107.13
-126.86
-141.84
-150.91
-153.42
-149.86
-141.91
-131.93
-121.88
-112.68
-104.11
-95.34
-85.72
-75.28
-64.85
-55.52
-48.08
-42.73
-39.0
-36.2
-33.84
-31.81
-30.43
-30.12
-31.01
-32.68
-34.15
-34.17
-31.78
-26.76
-19.76
-12.04
-4.89
0.87
5.18
8.5
11.42
14.22
16.8
18.81
19.96
20.23
19.89
19.33
18.86
18.62
18.53
18.44
18.17
17.64
16.82
15.82
14.76
13.74
12.75
11.63
10.16
8.18
5.72
3.04
0.5
-1.57
-3.11
-4.3
-5.52
-7.14
-9.41
-12.38
-15.85
-19.45
-22.61
-24.7
-25.13
-23.52
-19.94
-14.88
-9.14
-3.56
1.23
5.02
7.87
10.0
11.56
12.58
13.03
12.92
12.46
11.9
11.49
11.35
11.46
11.7
11.93
12.06
12.02
11.81
11.4
10.76
9.84
8.6
7.0
5.09
2.98
0.83
-1.16
-2.91
-4.43
-5.91
-7.62
-9.76
-12.41
-15.42
-18.46
-21.07
-22.76
-23.04
-21.62
-18.42
-13.71
-8.05
-2.14
3.35
7.98
11.54
14.06
15.62
16.36
16.42
16.02
15.44
15.02
14.96
15.32
15.94
16.51
16.76
16.52
15.77
14.65
13.28
11.8
10.24
8.58
6.76
4.8
2.71
0.59
-1.49
-3.48
-5.4
-7.37
-9.55
-12.11
-15.16
-18.62
-22.21
-25.42
-27.63
-28.22
-26.79
-23.3
-18.11
-11.91
-5.5
0.44
5.52
9.65
12.91
15.43
17.23
18.3
18.65
18.42
17.93
17.54
17.52
17.89
18.44
18.83
18.82
18.37
17.6
16.73
15.89
15.05
14.02
12.62
10.74
8.47
5.97
3.5
1.25
-0.74
-2.58
-4.51
-6.81
-9.72
-13.26
-17.26
-21.33
-24.89
-27.35
-28.18
-27.11
-24.13
-19.57
-13.97
-8.0
-2.27
2.83
7.09
10.45
12.96
14.65
15.6
15.97
15.96
15.88
15.95
16.3
16.88
17.51
17.94
17.97
17.53
16.68
15.59
14.39
13.16
11.81
10.2
8.26
6.01
3.64
1.39
-0.56
-2.22
-3.76
-5.46
-7.57
-10.21
-13.4
-17.01
-20.76
-24.23
-26.81
-27.85
-26.84
-23.67
-18.67
-12.59
-6.31
-0.52
4.4
8.43
11.72
14.32
16.19
17.22
17.41
16.92
16.17
15.57
15.44
15.8
16.39
16.87
16.93
16.46
15.58
14.54
13.59
12.82
12.18
11.47
10.41
8.83
6.72
4.26
1.76
-0.53
-2.51
-4.3
-6.21
-8.55
-11.53
-15.12
-19.04
-22.77
-25.68
-27.21
-26.94
-24.77
-20.91
-15.89
-10.34
-4.84
0.23
4.67
8.41
11.36
13.35
14.24
14.04
13.02
11.64
10.47
9.92
10.14
10.91
11.81
12.35
12.19
11.21
9.51
7.36
5.06
2.82
0.68
-1.51
-3.98
-6.91
-10.36
-14.19
-18.22
-22.25
-26.23
-30.23
-34.38
-38.84
-43.81
-49.58
-56.51
-64.75
-74.02
-83.34
-91.22
-96.23
-97.66
-95.91
-92.37
-88.72
-86.07
-84.45
-83.0
-80.6
-76.67
-71.44
-65.77
-60.44
-55.62
-50.64
-44.45
-36.17
-25.65
-13.55
-0.98
10.95
21.62
30.86
38.87
45.78
51.52
55.81
58.37
59.17
58.47
56.76
54.58
52.3
50.01
47.6
44.85
41.62
37.9
33.8
29.48
25.06
20.49
15.63
10.33
4.58
-1.24
-6.46
-10.22
-11.75
-10.67
-7.16
-1.89
4.29
10.57
16.39
21.49
25.76
29.11
31.47
32.76
33.08
32.72
32.09
31.65
31.68
32.23
33.12
34.0
34.55
34.56
34.0
33.01
31.85
30.73
29.83
29.1
28.38
27.45
26.1
24.23
21.89
19.21
16.43
13.72
11.16
8.71
6.13
3.12
-0.57
-4.99
-9.83
-14.41
-17.84
-19.31
-18.32
-14.89
-9.55
-3.1
3.61
9.89
15.32
19.75
23.14
25.5
26.85
27.25
26.9
26.12
25.33
24.93
25.14
25.92
27.01
28.06
28.73
28.87
28.46
27.62
26.52
25.32
24.06
22.69
21.08
19.04
16.48
13.41
10.07
6.77
3.79
1.25
-0.92
-2.97
-5.15
-7.66
-10.58
-13.87
-17.35
-20.74
-23.58
-25.3
-25.32
-23.23
-18.98
-12.92
-5.76
1.69
8.76
14.98
20.21
24.45
27.82
30.49
32.64
34.51
36.34
38.34
40.56
42.9
45.12
47.01
48.44
49.44
50.18
50.92
51.96
53.61
56.08
59.41
63.42
67.62
71.42
74.28
76.0
76.76
77.09
77.54
78.45
79.78
81.21
82.28
82.62
82.03
80.52
78.18
75.27
72.16
69.36
67.43
66.81
67.61
69.49
71.69
73.26
73.29
71.27
67.13
61.16
53.74
44.96
34.5
21.86
6.79
-10.31
-28.28
-45.58
-60.93
-73.91
-85.02
-95.19
-105.13
-114.85
-123.71
-130.92
-136.07
-139.34
-141.28
-142.37
-142.74
-142.3
-141.08
-139.41
-137.78
-136.38
-134.84
-132.25
-127.85
-121.63
-114.61
-108.33
-103.85
-100.99
-98.19
-93.32
-84.87
-72.81
-58.69
-44.87
-33.48
-25.6
-21.14
-19.12
-18.2
-16.95
-14.04
-8.44
0.54
12.96
28.2
45.06
62.18
78.32
92.65
104.65
114.04
120.56
124.01
124.32
121.68
116.57
109.66
101.66
93.09
84.22
75.03
65.36
55.03
43.95
32.25
20.24
8.38
-2.82
-12.9
-21.5
-28.37
-33.39
-36.51
-37.79
-37.34
-35.4
-32.39
-28.91
-25.6
-22.98
-21.24
-20.24
-19.53
-18.67
-17.44
-15.91
-14.34
-12.99
-11.91
-10.87
-9.53
-7.65
-5.25
-2.61
-0.12
1.86
3.23
4.12
4.84
5.67
6.8
8.29
10.07
12.04
14.13
16.23
18.28
20.18
21.92
23.73
26.1
29.77
35.53
43.98
55.26
68.94
84.13
99.61
114.02
126.13
134.96
139.97
141.1
138.78
133.69
126.64
118.27
109.02
99.16
88.88
78.3
67.45
56.22
44.23
30.95
15.86
-1.42
-20.95
-42.44
-65.29
-88.63
-111.29
-131.76
-148.29
-159.24
-163.48
-161.0
-153.11
-142.18
-130.94
-121.61
-115.16
-111.25
-108.54
-105.54
-101.26
-95.51
-88.78
-81.79
-75.12
-68.94
-63.11
-57.33
-51.33
-44.93
-38.18
-31.22
-24.38
-18.15
-13.1
-9.68
-7.89
-7.03
-5.7
-2.3
4.34
14.24
26.05
37.41
45.79
49.31
47.34
40.54
30.5
19.17
8.4
-0.44
-6.64
-10.17
-11.7
-12.35
-13.36
-15.69
-19.6
-24.59
-29.57
-33.2
-34.46
-33.05
-29.49
-24.84
-20.27
-16.52
-13.62
-10.99
-7.76
-3.2
2.98
10.63
19.32
28.56
37.97
47.28
56.38
65.36
74.42
83.81
93.65
103.68
113.34
121.88
128.66
133.32
135.66
135.44
132.3
125.92
116.23
103.65
88.92
72.75
55.48
37.03
17.29
-3.36
-23.79
-42.19
-56.7
-65.85
-69.12
-66.85
-60.0
-49.86
-37.81
-25.13
-13.03
-2.5
5.67
10.97
13.3
13.11
11.41
9.62
9.07
10.48
13.61
17.38
20.43
21.8
21.37
19.71
17.56
15.29
12.68
9.26
4.75
-0.48
-5.54
-9.53
-12.13
-13.94
-16.13
-19.9
-25.81
-33.57
-42.14
-50.24
-56.85
-61.41
-63.79
-64.1
-62.59
-59.6
-55.71
-51.72
-48.47
-46.6
-46.23
-46.96
-48.04
-48.74
-48.66
-47.87
-46.76
-45.9
-45.8
-46.71
-48.59
-50.96
-53.03
-53.78
-52.27
-48.03
-41.22
-32.73
-23.84
-15.8
-9.43
-4.94
-2.08
-0.39
0.46
0.66
0.26
-0.66
-1.88
-3.05
-3.84
-4.04
-3.67
-2.91
-2.0
-1.11
-0.29
0.5
1.33
2.17
2.93
3.46
3.61
3.32
2.6
1.48
0.04
-1.67
-3.53
-5.46
-7.3
-8.99
-10.5
-11.92
-13.45
-15.28
-17.57
-20.42
-23.78
-27.47
-31.12
-34.15
-35.87
-35.6
-32.95
-28.01
-21.37
-13.98
-6.87
-0.79
3.97
7.47
10.04
11.97
13.43
14.46
15.04
15.2
15.03
14.65
14.2
13.78
13.47
13.3
13.24
13.18
12.99
12.53
11.8
10.9
9.99
9.15
8.35
7.52
6.53
5.34
3.99
2.54
1.02
-0.6
-2.37
-4.3
-6.28
-8.26
-10.22
-12.32
-14.83
-17.9
-21.44
-24.98
-27.75
-29.01
-28.31
-25.67
-21.59
-16.8
-12.01
-7.73
-4.19
-1.43
0.62
2.01
2.75
2.9
2.57
1.95
1.3
0.89
0.92
1.45
2.35
3.32
4.04
4.31
4.12
3.68
3.24
2.98
2.84
2.57
1.83
0.42
-1.69
-4.29
-7.1
-9.85
-12.39
-14.71
-16.84
-18.9
-21.02
-23.34
-26.02
-29.12
-32.51
-35.78
-38.27
-39.22
-38.03
-34.42
-28.62
-21.31
-13.4
-5.82
0.74
5.96
9.79
12.38
13.93
14.6
14.59
14.09
13.35
12.68
12.26
12.21
12.43
12.73
12.94
12.95
12.84
12.73
12.78
12.97
13.16
13.05
12.39
11.04
9.14
6.97
4.91
3.2
1.83
0.53
-1.13
-3.55
-6.96
-11.24
-15.92
-20.2
-23.13
-23.87
-21.87
-17.15
-10.26
-2.19
6.04
13.56
19.9
24.98
28.93
31.92
34.01
35.11
35.13
34.09
32.18
29.72
27.06
24.44
21.94
19.46
16.87
14.13
11.31
8.54
5.96
3.59
1.27
-1.26
-4.27
-7.87
-11.95
-16.24
-20.34
-23.89
-26.69
-28.75
-30.33
-31.9
-33.98
-36.92
-40.72
-44.84
-48.32
-50.03
-49.01
-44.92
-38.1
-29.51
-20.33
-11.64
-4.1
2.03
6.82
10.46
13.16
15.02
16.16
16.74
16.95
17.08
17.36
17.9
18.66
19.43
19.93
19.97
19.47
18.53
17.34
16.02
14.52
12.62
10.03
6.62
2.56
-1.74
-5.76
-9.12
-11.74
-13.82
-15.72
-17.86
-20.55
-23.93
-27.94
-32.3
-36.45
-39.59
-40.85
-39.48
-35.21
-28.34
-19.76
-10.63
-2.05
5.27
11.09
15.61
19.16
22.07
24.47
26.34
27.58
28.19
28.27
28.05
27.78
27.63
27.61
27.65
27.6
27.38
27.04
26.63
26.21
25.67
24.75
23.14
20.66
17.36
13.55
9.69
6.19
3.23
0.71
-1.6
-4.05
-6.95
-10.51
-14.89
-20.09
-25.93
-31.87
-37.08
-40.54
-41.39
-39.16
-34.01
-26.7
-18.28
-9.83
-2.1
4.58
10.24
15.11
19.42
23.23
26.5
29.1
30.96
32.16
32.91
33.45
34.01
34.65
35.29
35.75
35.84
35.41
34.41
32.8
30.59
27.78
24.43
20.66
16.67
12.65
8.76
5.04
1.42
-2.19
-5.83
-9.48
-13.04
-16.45
-19.7
-22.86
-26.08
-29.53
-33.42
-37.81
-42.62
-47.46
-51.63
-54.19
-54.25
-51.18
-44.96
-36.17
-25.91
-15.42
-5.71
2.64
9.55
15.2
19.86
23.7
26.79
29.13
30.76
31.82
32.49
32.95
33.32
33.6
33.78
33.83
33.75
33.52
33.15
32.58
31.72
30.48
28.82
26.73
24.31
21.72
19.17
16.78
14.54
12.27
9.75
6.8
3.38
-0.32
-4.0
-7.37
-10.24
-12.69
-14.91
-17.25
-20.09
-23.7
-28.13
-33.11
-37.98
-41.78
-43.46
-42.22
-37.83
-30.71
-21.83
-12.41
-3.49
4.33
10.97
16.63
21.62
26.05
29.84
32.86
35.02
36.47
37.51
38.51
39.71
41.11
42.54
43.69
44.29
44.18
43.34
41.8
39.65
36.91
33.58
29.69
25.35
20.79
16.32
12.23
8.72
5.82
3.39
1.24
-0.86
-3.1
-5.54
-8.2
-10.95
-13.62
-15.99
-17.96
-19.56
-21.06
-22.91
-25.55
-29.29
-34.12
-39.64
-45.07
-49.46
-51.86
-51.56
-48.34
-42.49
-34.76
-26.18
-17.68
-9.96
-3.29
2.4
7.33
11.7
15.49
18.52
20.6
21.74
22.18
22.33
22.57
23.08
23.75
24.34
24.62
24.56
24.32
24.12
24.07
24.06
23.85
23.15
21.85
19.99
17.8
15.54
13.39
11.43
9.61
7.79
5.79
3.46
0.75
-2.28
-5.44
-8.5
-11.3
-13.83
-16.26
-18.89
-22.11
-26.17
-31.15
-36.8
-42.52
-47.4
-50.44
-50.84
-48.28
-43.11
-36.2
-28.69
-21.52
-15.24
-9.89
-5.24
-1.06
2.71
5.95
8.5
10.3
11.51
12.43
13.37
14.49
15.74
16.98
18.0
18.7
19.14
19.46
19.83
20.3
20.76
21.01
20.85
20.11
18.82
17.11
15.23
13.47
12.01
10.96
10.26
9.73
9.08
8.07
6.54
4.54
2.26
-0.03
-2.14
-4.09
-6.07
-8.43
-11.42
-15.12
-19.31
-23.48
-26.9
-28.83
-28.57
-25.78
-20.47
-13.02
-4.12
5.41
14.84
23.6
31.41
38.19
43.97
48.84
52.83
55.92
58.12
59.47
60.15
60.38
60.45
60.59
60.97
61.61
62.54
63.77
65.41
67.55
70.19
73.17
76.16
78.81
80.92
82.59
84.19
86.26
89.19
92.97
97.06
100.35
101.45
98.97
91.95
80.14
64.17
45.42
25.66
6.64
-10.39
-24.83
-36.71
-46.4
-54.3
-60.61
-65.35
-68.45
-69.97
-70.14
-69.31
-67.8
-65.77
-63.19
-60.02
-56.38
-52.68
-49.59
-47.73
-47.38
-48.24
-49.55
-50.39
-50.11
-48.58
-46.2
-43.69
-41.6
-40.15
-39.11
-38.05
-36.57
-34.61
-32.33
-30.01
-27.87
-25.79
-23.54
-20.9
-17.92
-14.96
-12.59
-11.26
-11.1
-11.83
-12.91
-13.83
-14.36
-14.61
-14.95
-15.79
-17.5
-20.25
-24.03
-28.61
-33.38
-37.41
-39.54
-38.74
-34.42
-26.79
-16.84
-5.97
4.39
13.31
20.47
26.02
30.36
33.74
36.25
37.78
38.24
37.63
36.08
33.79
30.94
27.7
24.26
20.86
17.74
15.09
12.91
10.95
8.8
6.01
2.25
-2.62
-8.46
-14.93
-21.5
-27.51
-32.28
-35.22
-35.96
-34.53
-31.38
-27.2
-22.78
-18.74
-15.47
-13.06
-11.49
-10.65
-10.49
-11.0
-12.3
-14.64
-18.32
-23.63
-30.53
-38.55
-46.64
-53.46
-57.67
-58.46
-55.8
-50.4
-43.55
-36.68
-31.08
-27.62
-26.52
-27.21
-28.43
-28.54
-26.03
-20.16
-11.21
-0.5
10.05
18.46
23.24
23.65
19.72
12.2
2.28
-8.66
-19.29
-28.5
-35.6
-40.31
-42.72
-43.14
-42.03
-40.02
-37.78
-35.93
-34.87
-34.68
-35.08
-35.55
-35.54
-34.64
-32.74
-30.07
-27.03
-24.18
-22.01
-20.85
-20.9
-22.3
-25.2
-29.85
-36.38
-44.66
-54.01
-63.22
-70.69
-74.86
-74.63
-69.59
-60.06
-46.92
-31.3
-14.45
2.4
18.11
31.71
42.59
50.59
55.98
59.32
61.15
61.85
61.54
60.23
58.04
55.2
52.1
49.11
46.43
44.07
41.95
40.01
38.26
36.79
35.7
35.0
34.65
34.66
34.97
35.39
35.43
34.21
30.67
24.02
14.17
1.86
-11.54
-24.57
-36.32
-46.62
-55.94
-64.95
-74.05
-83.11
-91.51
-98.34
-102.7
-103.89
-101.44
-95.17
-85.27
-72.27
-57.11
-41.04
-25.41
-11.47
-0.1
8.39
14.21
17.93
20.18
21.45
21.98
21.82
21.01
19.66
18.03
16.43
15.21
14.75
15.33
17.15
20.17
24.0
28.0
31.36
33.45
34.01
33.21
31.5
29.38
27.07
24.4
20.94
16.19
9.91
2.25
-6.21
-14.7
-22.46
-28.96
-34.09
-38.1
-41.59
-45.33
-50.08
-56.21
-63.48
-70.86
-76.65
-79.04
-76.67
-69.22
-57.53
-43.3
-28.34
-14.07
-1.1
10.61
21.36
31.37
40.58
48.68
55.42
60.73
64.84
68.11
70.9
73.44
75.79
78.0
80.18
82.56
85.4
88.77
92.5
96.08
98.84
100.21
99.85
97.78
94.27
89.73
84.56
79.11
73.64
68.2
62.7
56.87
50.41
43.15
35.29
27.3
19.81
13.28
7.72
2.64
-2.8
-9.41
-17.65
-27.31
-37.51
-46.9
-53.99
-57.59
-57.07
-52.58
-44.96
-35.48
-25.5
-16.16
-8.16
-1.76
3.08
6.54
8.81
10.02
10.27
9.71
8.56
7.08
5.53
4.07
2.82
1.8
1.04
0.55
0.31
0.27
0.29
0.23
-0.08
-0.72
-1.7
-2.99
-4.5
-6.17
-7.97
-9.94
-12.12
-14.58
-17.39
-20.62
-24.3
-28.43
-33.01
-37.99
-43.37
-49.15
-55.32
-61.81
-68.42
-74.83
-80.52
-84.82
-86.95
-86.16
-81.97
-74.27
-63.43
-50.23
-35.72
-21.0
-6.97
5.78
16.99
26.6
34.64
41.03
45.67
48.51
49.72
49.75
49.21
48.66
48.3
47.9
46.88
44.67
40.98
36.06
30.52
25.06
20.13
15.78
11.75
7.66
3.26
-1.43
-6.22
-10.91
-15.32
-19.46
-23.34
-27.01
-30.49
-33.84
-37.18
-40.71
-44.55
-48.66
-52.66
-55.81
-57.22
-56.04
-51.84
-44.7
-35.28
-24.52
-13.3
-2.16
8.81
19.83
31.14
42.69
53.97
64.11
72.12
77.22
79.06
77.87
74.28
69.18
63.49
57.95
53.03
48.89
45.45
42.43
39.54
36.55
33.36
30.01
26.59
23.19
19.82
16.51
13.29
10.24
7.48
5.02
2.73
0.35
-2.45
-5.89
-10.11
-15.14
-20.96
-27.48
-34.42
-41.19
-46.76
-49.9
-49.51
-45.09
-36.98
-26.26
-14.41
-2.78
7.74
16.88
24.8
31.85
38.26
44.06
49.09
53.15
56.18
58.28
59.71
60.77
61.68
62.51
63.14
63.35
62.97
61.94
60.36
58.48
56.51
54.49
52.25
49.39
45.51
40.36
34.0
26.78
19.23
11.85
4.96
-1.33
-7.1
-12.48
-17.64
-22.75
-27.91
-33.08
-37.96
-41.86
-43.85
-43.0
-38.78
-31.28
-21.34
-10.21
0.77
10.66
19.07
26.09
32.04
37.21
41.63
45.2
47.83
49.65
51.08
52.71
55.08
58.41
62.44
66.54
69.89
71.83
72.04
70.63
67.93
64.32
59.96
54.76
48.48
40.95
32.18
22.46
12.24
1.92
-8.22
-18.14
-27.93
-37.81
-47.91
-58.29
-68.92
-79.65
-90.17
-100.0
-108.39
-114.39
-117.07
-115.81
-110.49
-101.67
-90.44
-78.07
-65.72
-54.12
-43.61
-34.24
-26.01
-18.97
-13.22
-8.78
-5.5
-3.07
-1.1
0.68
2.38
3.91
5.11
5.95
6.53
7.09
7.86
8.89
9.95
10.61
10.37
8.91
6.27
2.82
-0.83
-4.1
-6.7
-8.67
-10.43
-12.56
-15.61
-19.9
-25.43
-31.79
-38.2
-43.61
-46.89
-47.16
-43.99
-37.68
-29.1
-19.46
-9.92
-1.28
6.15
12.36
17.49
21.59
24.62
26.51
27.34
27.34
26.83
26.13
25.47
24.89
24.34
23.73
23.02
22.28
21.62
21.19
21.08
21.19
21.3
21.03
20.04
18.08
15.18
11.63
7.84
4.18
0.85
-2.2
-5.21
-8.51
-12.41
-17.22
-23.11
-30.07
-37.76
-45.44
-51.97
-56.09
-56.82
-53.77
-47.35
-38.64
-28.99
-19.62
-11.23
-4.03
2.19
7.74
12.85
17.55
21.72
25.25
28.09
30.28
31.99
33.41
34.73
36.07
37.39
38.56
39.33
39.46
38.84
37.52
35.7
33.57
31.25
28.68
25.73
22.22
18.12
13.53
8.64
3.69
-1.16
-5.85
-10.44
-15.03
-19.78
-24.89
-30.47
-36.66
-43.39
-50.39
-57.07
-62.53
-65.73
-65.72
-62.04
-54.87
-45.1
-34.02
-22.94
-12.86
-4.25
2.88
8.75
13.64
17.73
21.05
23.62
25.43
26.57
27.15
27.34
27.26
27.05
26.8
26.59
26.51
26.6
26.86
27.18
27.34
27.09
26.21
24.62
22.38
19.71
16.82
13.85
10.85
7.74
4.43
0.9
-2.78
-6.49
-10.07
-13.44
-16.66
-19.9
-23.49
-27.78
-33.01
-39.08
-45.45
-51.07
-54.65
-55.04
-51.59
-44.45
-34.45
-22.9
-11.15
-0.25
9.26
17.27
24.0
29.77
34.82
39.25
43.0
45.97
48.06
49.36
50.06
50.46
50.79
51.11
51.4
51.55
51.53
51.4
51.22
50.94
50.34
49.04
46.71
43.22
38.76
33.79
28.86
24.39
20.48
16.91
13.26
9.12
4.28
-1.13
-6.73
-12.03
-16.66
-20.53
-23.96
-27.51
-31.82
-37.34
-44.09
-51.59
-58.85
-64.61
-67.6
-66.94
-62.37
-54.33
-43.9
-32.37
-21.01
-10.65
-1.67
6.03
12.73
18.76
24.3
29.35
33.77
37.36
39.96
41.46
41.89
41.42
40.27
38.71
36.99
35.32
33.86
32.72
31.97
31.6
31.53
31.54
31.3
30.41
28.56
25.6
21.64
16.96
11.91
6.75
1.49
-4.01
-9.95
-16.38
-23.12
-29.84
-36.17
-41.96
-47.29
-52.42
-57.74
-63.58
-70.15
-77.47
-85.26
-92.86
-99.19
-103.04
-103.31
-99.51
-91.94
-81.59
-69.85
-57.96
-46.77
-36.61
-27.46
-19.16
-11.48
-4.25
2.71
9.45
15.94
21.96
27.21
31.37
34.27
35.93
36.66
36.9
37.23
38.19
40.15
43.25
47.4
52.33
57.84
63.9
70.74
78.72
88.05
98.52
109.27
118.73
124.97
126.23
121.61
111.47
97.42
81.78
66.66
53.29
41.73
31.23
20.83
9.94
-1.46
-12.89
-23.6
-32.59
-38.47
-39.63
-34.61
-23.0
-6.0
13.49
31.6
44.73
50.63
48.95
40.89
28.4
13.28
-3.24
-20.47
-37.9
-54.87
-70.55
-84.11
-95.03
-103.16
-108.63
-111.58
-111.99
-109.61
-104.24
-95.98
-85.4
-73.48
-61.26
-49.56
-38.85
-29.39
-21.54
-15.78
-12.62
-12.37
-14.77
-18.92
-23.54
-27.32
-29.4
-29.65
-28.55
-26.86
-25.28
-24.18
-23.63
-23.56
-23.86
-24.33
-24.63
-24.28
-22.8
-20.08
-16.53
-13.0
-10.4
-9.19
-9.12
-9.44
-9.43
-8.91
-8.43
-8.93
-11.18
-15.3
-20.77
-26.68
-32.22
-36.96
-40.91
-44.25
-47.07
-49.28
-50.61
-50.85
-50.08
-48.67
-47.18
-46.13
-45.81
-46.2
-47.01
-47.79
-48.23
-48.24
-48.06
-48.1
-48.77
-50.28
-52.5
-55.08
-57.56
-59.64
-61.32
-62.86
-64.68
-67.13
-70.32
-73.94
-77.3
-79.43
-79.27
-75.97
-69.15
-59.05
-46.47
-32.59
-18.58
-5.37
6.52
16.98
26.09
33.99
40.76
46.33
50.57
53.39
54.77
54.87
53.99
52.51
50.83
49.22
47.84
46.7
45.73
44.8
43.84
42.71
41.27
39.31
36.64
33.22
29.21
24.91
20.62
16.46
12.34
8.03
3.38
-1.54
-6.41
-10.86
-14.66
-17.92
-20.99
-24.38
-28.44
-33.29
-38.71
-44.13
-48.73
-51.57
-51.74
-48.61
-42.05
-32.5
-20.91
-8.47
3.69
14.83
24.59
32.99
40.21
46.34
51.31
54.94
57.03
57.56
56.74
54.99
52.81
50.68
48.9
47.62
46.86
46.55
46.58
46.75
46.83
46.55
45.64
43.95
41.46
38.23
34.37
30.0
25.3
20.46
15.74
11.39
7.53
4.11
0.92
-2.41
-6.18
-10.63
-15.88
-21.93
-28.79
-36.38
-44.45
-52.41
-59.31
-63.98
-65.34
-62.78
-56.38
-46.92
-35.67
-23.99
-12.95
-3.13
5.35
12.68
19.03
24.46
28.8
31.89
33.69
34.44
34.58
34.62
34.96
35.73
36.81
37.93
38.82
39.34
39.5
39.36
38.93
38.18
36.98
35.21
32.81
29.8
26.29
22.46
18.44
14.3
10.07
5.74
1.34
-3.08
-7.42
-11.7
-16.06
-20.84
-26.46
-33.21
-41.03
-49.32
-56.98
-62.63
-65.04
-63.53
-58.17
-49.76
-39.5
-28.58
-17.88
-7.81
1.56
10.29
18.32
25.46
31.42
36.02
39.24
41.29
42.51
43.22
43.67
44.01
44.34
44.69
45.06
45.41
45.66
45.67
45.3
44.45
43.05
41.1
38.66
35.84
32.8
29.71
26.74
23.93
21.19
18.28
14.91
10.89
6.21
1.09
-4.15
-9.19
-13.92
-18.44
-23.04
-28.11
-34.03
-41.02
-49.05
-57.7
-66.03
-72.76
-76.49
-76.15
-71.42
-62.85
-51.68
-39.46
-27.47
-16.49
-6.69
2.17
10.4
18.19
25.49
32.07
37.7
42.22
45.63
48.09
49.84
51.1
52.03
52.75
53.38
54.01
54.7
55.44
56.1
56.44
56.17
55.11
53.19
50.52
47.3
43.81
40.25
36.74
33.3
29.87
26.36
22.67
18.75
14.57
10.1
5.29
0.15
-5.2
-10.49
-15.44
-19.8
-23.62
-27.21
-31.09
-35.85
-41.83
-49.0
-56.86
-64.53
-70.86
-74.65
-74.98
-71.43
-64.22
-54.18
-42.51
-30.47
-18.97
-8.49
0.94
9.44
17.15
24.06
30.0
34.82
38.45
41.0
42.75
44.02
45.05
45.92
46.64
47.12
47.32
47.25
46.98
46.61
46.18
45.65
44.94
43.93
42.49
40.5
37.94
34.86
31.43
27.89
24.45
21.2
18.07
14.81
11.16
6.89
2.04
-3.19
-8.45
-13.39
-17.78
-21.61
-25.12
-28.7
-32.84
-37.98
-44.31
-51.66
-59.39
-66.5
-71.78
-74.13
-72.76
-67.55
-58.95
-47.99
-35.95
-24.05
-13.2
-3.86
3.97
10.52
16.09
20.88
24.9
28.06
30.28
31.6
32.24
32.47
32.55
32.59
32.61
32.56
32.43
32.26
32.11
31.96
31.69
31.06
29.8
27.77
24.98
21.69
18.24
14.93
11.91
9.06
6.11
2.8
-0.98
-5.12
-9.29
-13.15
-16.53
-19.48
-22.32
-25.54
-29.6
-34.79
-41.06
-47.87
-54.23
-58.87
-60.55
-58.5
-52.64
-43.7
-32.92
-21.69
-11.06
-1.56
6.81
14.26
21.02
27.04
32.1
35.94
38.45
39.77
40.26
40.34
40.32
40.33
40.33
40.23
39.97
39.61
39.27
39.04
38.91
38.74
38.3
37.34
35.68
33.27
30.26
26.88
23.41
20.07
16.94
13.97
10.97
7.74
4.09
-0.02
-4.55
-9.32
-14.04
-18.49
-22.51
-26.16
-29.66
-33.42
-37.87
-43.31
-49.79
-56.92
-63.87
-69.5
-72.58
-72.15
-67.84
-60.01
-49.65
-38.08
-26.57
-16.02
-6.86
0.94
7.66
13.62
19.0
23.85
28.06
31.49
34.08
35.87
37.05
37.77
38.22
38.47
38.56
38.51
38.34
38.14
37.94
37.71
37.33
36.62
35.44
33.69
31.38
28.62
25.6
22.49
19.46
16.64
14.02
11.52
8.92
6.04
2.78
-0.82
-4.62
-8.46
-12.26
-16.02
-19.87
-23.91
-28.28
-33.05
-38.38
-44.38
-51.1
-58.28
-65.25
-70.96
-74.19
-73.95
-69.77
-61.97
-51.52
-39.76
-28.01
-17.21
-7.83
0.13
6.88
12.65
17.52
21.49
24.5
26.58
27.91
28.7
29.18
29.47
29.57
29.46
29.19
28.89
28.73
28.81
29.09
29.33
29.16
28.27
26.52
23.98
20.91
17.66
14.51
11.64
9.0
6.43
3.69
0.58
-2.93
-6.76
-10.71
-14.53
-18.05
-21.27
-24.36
-27.65
-31.56
-36.48
-42.5
-49.36
-56.29
-62.11
-65.55
-65.57
-61.74
-54.4
-44.55
-33.49
-22.49
-12.34
-3.38
4.42
11.25
17.18
22.23
26.35
29.6
32.2
34.41
36.51
38.65
40.84
43.02
45.09
47.04
48.85
50.57
52.3
54.19
56.34
58.79
61.37
63.74
65.49
66.26
65.91
64.52
62.23
59.18
55.39
50.85
45.64
40.02
34.46
29.46
25.38
22.3
19.99
17.87
15.16
11.01
4.62
-4.53
-16.55
-30.91
-46.46
-61.5
-74.16
-82.82
-86.56
-85.41
-80.35
-72.91
-64.72
-57.05
-50.57
-45.37
-41.21
-37.75
-34.81
-32.37
-30.52
-29.36
-28.89
-28.97
-29.37
-29.85
-30.19
-30.32
-30.22
-29.9
-29.34
-28.41
-27.02
-25.17
-23.03
-20.99
-19.49
-18.88
-19.2
-20.16
-21.25
-21.96
-22.02
-21.45
-20.57
-19.74
-19.28
-19.25
-19.51
-19.83
-19.96
-19.79
-19.39
-18.99
-18.97
-19.76
-21.76
-25.21
-30.0
-35.64
-41.17
-45.42
-47.24
-45.86
-41.14
-33.6
-24.31
-14.47
-5.1
3.21
10.37
16.58
22.12
27.13
31.58
35.31
38.2
40.24
41.52
42.22
42.45
42.22
41.52
40.39
38.99
37.54
36.23
35.11
34.06
32.75
30.88
28.29
25.05
21.42
17.74
14.31
11.21
8.35
5.52
2.47
-0.94
-4.7
-8.66
-12.53
-16.07
-19.12
-21.71
-24.06
-26.46
-29.25
-32.62
-36.59
-40.85
-44.81
-47.62
-48.35
-46.22
-40.8
-32.18
-20.87
-7.72
6.38
20.63
34.4
47.28
58.94
69.13
77.72
84.68
90.26
94.99
99.68
105.27
112.54
121.78
132.61
143.96
154.41
162.65
167.95
170.33
170.49
169.37
167.68
165.68
163.28
160.32
156.73
152.53
147.6
141.43
133.21
121.99
106.96
87.6
63.49
34.16
-0.69
-40.72
-84.22
-127.71
-166.38
-195.22
-210.46
-210.57
-196.44
-170.81
-137.43
-100.48
-64.16
-32.44
-8.64
5.19
8.84
4.02
-6.16
-18.28
-29.64
-38.9
-46.01
-51.81
-57.33
-63.38
-70.45
-78.7
-88.02
-98.1
-108.4
-118.12
-126.38
-132.35
-135.62
-136.37
-135.37
-133.69
-132.3
-131.55
-131.01
-129.61
-126.21
-120.18
-111.85
-102.49
-93.83
-87.35
-83.66
-82.32
-82.14
-81.82
-80.46
-77.95
-74.88
-72.22
-70.88
-71.41
-73.92
-78.1
-83.27
-88.49
-92.56
-94.23
-92.41
-86.52
-76.69
-63.84
-49.43
-35.05
-21.99
-10.99
-2.16
4.9
10.78
16.05
21.01
25.71
29.97
33.59
36.42
38.45
39.81
40.71
41.31
41.77
42.2
42.66
43.19
43.74
44.1
43.94
42.9
40.71
37.35
33.1
28.5
24.07
20.15
16.66
13.18
9.14
4.08
-2.08
-9.02
-16.2
-23.14
-29.63
-35.77
-41.98
-48.66
-56.07
-64.19
-72.58
-80.47
-86.81
-90.44
-90.38
-85.98
-77.21
-64.63
-49.27
-32.38
-15.11
1.63
17.36
31.88
45.24
57.53
68.78
78.83
87.45
94.33
99.3
102.37
103.76
103.87
103.19
102.16
101.03
99.87
98.55
96.79
94.33
90.97
86.65
81.47
75.63
69.4
63.05
56.8
50.76
44.93
39.25
33.65
28.12
22.74
17.64
12.9
8.47
4.12
-0.51
-5.86
-12.23
-19.65
-27.71
-35.45
-41.56
-44.65
-43.67
-38.35
-29.27
-17.7
-5.18
6.97
17.92
27.35
35.27
41.76
46.84
50.4
52.42
52.99
52.41
51.15
49.66
48.25
47.07
46.09
45.21
44.36
43.5
42.62
41.56
40.05
37.78
34.51
30.27
25.35
20.22
15.31
10.84
6.73
2.68
-1.67
-6.56
-11.99
-17.75
-23.49
-28.91
-33.85
-38.41
-42.95
-48.04
-54.26
-61.94
-71.05
-80.9
-90.23
-97.43
-100.96
-99.81
-93.86
-83.93
-71.48
-58.09
-45.01
-32.86
-21.61
-10.93
-0.51
9.71
19.42
28.16
35.53
41.37
45.86
49.34
52.22
54.8
57.18
59.39
61.41
63.29
65.1
66.85
68.37
69.35
69.36
68.07
65.32
61.25
56.24
50.81
45.5
40.67
36.41
32.52
28.6
24.18
18.99
12.99
6.48
-0.07
-6.21
-11.66
-16.45
-20.9
-25.52
-30.9
-37.54
-45.64
-54.97
-64.71
-73.55
-79.95
-82.51
-80.39
-73.63
-63.06
-50.11
-36.34
-23.01
-10.81
0.11
9.95
18.99
27.36
35.02
41.77
47.42
51.91
55.26
57.64
59.21
60.14
60.57
60.63
60.48
60.24
60.01
59.78
59.43
58.79
57.65
55.89
53.5
50.56
47.18
43.49
39.57
35.48
31.29
27.04
22.85
18.8
14.93
11.18
7.41
3.42
-0.92
-5.63
-10.6
-15.58
-20.35
-24.75
-28.8
-32.74
-36.94
-41.84
-47.75
-54.8
-62.66
-70.6
-77.42
-81.75
-82.35
-78.58
-70.6
-59.39
-46.47
-33.38
-21.21
-10.43
-0.95
7.56
15.3
22.24
28.16
32.82
36.16
38.33
39.64
40.41
40.88
41.19
41.42
41.61
41.77
41.91
42.03
42.08
41.97
41.6
40.85
39.56
37.62
34.98
31.72
28.07
24.33
20.73
17.37
14.14
10.75
6.92
2.46
-2.56
-7.88
-13.08
-17.86
-22.11
-25.99
-29.89
-34.25
-39.45
-45.73
-53.06
-61.03
-68.84
-75.29
-79.07
-79.07
-74.8
-66.58
-55.53
-43.15
-30.87
-19.68
-9.93
-1.52
5.85
12.43
18.27
23.25
27.24
30.16
32.07
33.14
33.6
33.7
33.64
33.54
33.5
33.56
33.71
33.88
33.97
33.81
33.28
32.26
30.72
28.69
26.23
23.41
20.34
17.11
13.83
10.63
7.57
4.65
1.79
-1.15
-4.28
-7.64
-11.19
-14.78
-18.27
-21.61
-24.8
-27.93
-31.15
-34.64
-38.59
-43.21
-48.7
-55.14
-62.27
-69.43
-75.44
-78.91
-78.63
-73.99
-65.31
-53.73
-40.87
-28.27
-17.01
-7.43
0.66
7.71
14.11
19.98
25.21
29.64
33.15
35.8
37.8
39.41
40.82
42.12
43.28
44.28
45.12
45.89
46.7
47.61
48.55
49.36
49.84
49.82
49.19
47.86
45.83
43.13
39.84
36.12
32.17
28.16
24.24
20.46
16.79
13.11
9.25
5.09
0.59
-4.14
-8.89
-13.45
-17.66
-21.56
-25.36
-29.4
-34.02
-39.48
-45.87
-52.96
-60.12
-66.33
-70.34
-70.99
-67.65
-60.49
-50.52
-39.23
-28.14
-18.4
-10.48
-4.28
0.65
4.78
8.43
11.65
14.36
16.41
17.73
18.37
18.45
18.12
17.56
16.86
16.15
15.56
15.21
15.11
15.13
14.93
14.04
11.97
8.46
3.55
-2.44
-8.94
-15.34
-21.12
-25.91
-29.55
-32.08
-33.62
-34.37
-34.52
-34.22
-33.6
-32.77
-31.93
-31.36
-31.48
-32.68
-35.25
-39.12
-43.77
-48.24
-51.34
-51.98
-49.5
-43.91
-35.84
-26.36
-16.61
-7.47
0.63
7.62
13.64
18.82
23.17
26.59
28.98
30.33
30.79
30.64
30.19
29.7
29.28
28.92
28.55
28.12
27.65
27.23
26.94
26.74
26.45
25.76
24.34
22.05
18.92
15.24
11.43
7.84
4.63
1.67
-1.34
-4.74
-8.73
-13.28
-18.11
-22.86
-27.17
-30.95
-34.28
-37.54
-41.18
-45.61
-51.07
-57.47
-64.3
-70.68
-75.46
-77.48
-75.96
-70.69
-62.19
-51.57
-40.16
-29.15
-19.28
-10.75
-3.42
2.97
8.57
13.37
17.22
20.06
21.93
23.01
23.52
23.57
23.2
22.36
21.11
19.6
18.14
17.02
16.36
16.0
15.52
14.43
12.38
9.31
5.45
1.22
-2.96
-6.86
-10.52
-14.14
-18.01
-22.39
-27.35
-32.75
-38.26
-43.52
-48.15
-52.0
-55.13
-57.89
-60.76
-64.22
-68.49
-73.41
-78.33
-82.19
-83.81
-82.17
-76.73
-67.58
-55.41
-41.3
-26.42
-11.77
1.94
14.36
25.38
35.09
43.61
51.06
57.44
62.71
66.75
69.52
71.09
71.64
71.45
70.78
69.79
68.59
67.24
65.8
64.34
62.88
61.28
59.33
56.73
53.28
49.0
44.15
39.17
34.45
30.14
26.08
21.93
17.31
12.05
6.28
0.31
-5.5
-10.92
-15.98
-20.93
-26.13
-31.94
-38.61
-46.14
-54.26
-62.27
-69.18
-73.79
-75.09
-72.53
-66.25
-57.08
-46.2
-34.86
-23.96
-13.99
-5.02
3.09
10.48
17.19
23.1
28.03
31.86
34.59
36.35
37.39
38.01
38.48
38.95
39.55
40.31
41.19
42.13
42.95
43.42
43.27
42.29
40.43
37.84
34.82
31.68
28.65
25.76
22.85
19.67
16.02
11.8
7.07
2.05
-3.01
-7.86
-12.38
-16.67
-21.06
-26.02
-31.96
-38.94
-46.51
-53.62
-58.92
-61.13
-59.51
-54.03
-45.45
-34.98
-23.89
-13.2
-3.47
5.19
12.89
19.79
25.94
31.27
35.63
38.88
41.01
42.14
42.53
42.52
42.39
42.34
42.4
42.47
42.38
42.0
41.27
40.21
38.88
37.3
35.43
33.17
30.42
27.15
23.44
19.47
15.4
11.4
7.53
3.79
0.09
-3.67
-7.67
-12.1
-17.2
-23.17
-30.0
-37.37
-44.52
-50.35
-53.68
-53.62
-49.9
-42.96
-33.82
-23.75
-13.83
-4.7
3.44
10.72
17.26
23.02
27.79
31.31
33.45
34.32
34.25
33.69
33.0
32.4
31.97
31.67
31.42
31.17
30.89
30.54
30.05
29.27
28.08
26.35
24.05
21.23
18.05
14.67
11.2
7.67
4.05
0.28
-3.61
-7.54
-11.4
-15.12
-18.78
-22.62
-26.99
-32.18
-38.28
-45.02
-51.67
-57.17
-60.38
-60.37
-56.74
-49.83
-40.49
-29.94
-19.27
-9.25
-0.2
7.88
15.12
21.55
27.07
31.47
34.57
36.36
37.01
36.86
36.27
35.53
34.75
33.97
33.16
32.35
31.59
30.95
30.37
29.69
28.64
26.97
24.57
21.52
18.06
14.43
10.83
7.34
3.95
0.61
-2.7
-6.02
-9.39
-12.89
-16.66
-20.85
-25.59
-30.9
-36.62
-42.35
-47.4
-50.94
-52.12
-50.38
-45.64
-38.34
-29.33
-19.61
-10.11
-1.45
6.06
12.35
17.46
21.43
24.33
26.17
27.06
27.16
26.74
26.13
25.68
25.62
25.99
26.65
27.29
27.58
27.25
26.26
24.74
22.86
20.76
18.44
15.76
12.53
8.72
4.47
0.09
-4.04
-7.69
-10.82
-13.63
-16.38
-19.35
-22.77
-26.78
-31.5
-36.97
-43.08
-49.36
-55.0
-58.94
-60.14
-57.99
-52.5
-44.35
-34.63
-24.52
-14.95
-6.43
0.9
7.14
12.43
16.85
20.41
23.12
25.01
26.19
26.88
27.29
27.63
27.99
28.39
28.76
29.04
29.22
29.31
29.34
29.21
28.72
27.64
25.79
23.18
20.06
16.81
13.78
11.12
8.74
6.33
3.58
0.27
-3.55
-7.64
-11.71
-15.49
-18.94
-22.19
-25.57
-29.49
-34.27
-40.06
-46.61
-53.22
-58.82
-62.17
-62.26
-58.63
-51.6
-42.11
-31.48
-20.98
-11.46
-3.27
3.66
9.62
14.87
19.54
23.6
26.99
29.66
31.62
32.97
33.83
34.28
34.41
34.26
33.93
33.54
33.27
33.25
33.51
33.95
34.32
34.31
33.62
32.1
29.76
26.78
23.45
20.08
16.87
13.89
11.07
8.24
5.21
1.83
-1.93
-6.01
-10.21
-14.36
-18.31
-22.05
-25.68
-29.45
-33.64
-38.48
-44.0
-49.92
-55.57
-60.01
-62.16
-61.18
-56.75
-49.21
-39.5
-28.9
-18.57
-9.31
-1.44
5.13
10.69
15.49
19.66
23.15
25.9
27.87
29.16
29.95
30.45
30.79
30.99
30.99
30.72
30.19
29.52
28.91
28.53
28.39
28.32
28.02
27.14
25.48
23.04
20.03
16.78
13.63
10.84
8.48
6.43
4.44
2.21
-0.48
-3.68
-7.27
-10.95
-14.42
-17.46
-20.06
-22.4
-24.8
-27.64
-31.22
-35.74
-41.12
-46.96
-52.48
-56.63
-58.31
-56.74
-51.77
-43.92
-34.3
-24.2
-14.75
-6.59
0.07
5.42
9.74
13.27
16.13
18.32
19.85
20.73
21.07
21.01
20.73
20.37
20.02
19.73
19.51
19.4
19.41
19.5
19.53
19.3
18.58
17.19
15.1
12.45
9.5
6.53
3.72
1.1
-1.41
-3.97
-6.66
-9.47
-12.31
-15.04
-17.58
-19.97
-22.36
-25.02
-28.18
-32.03
-36.58
-41.62
-46.61
-50.72
-52.97
-52.45
-48.71
-41.97
-33.06
-23.28
-13.87
-5.69
0.95
6.2
10.36
13.64
16.1
17.71
18.55
18.8
18.8
18.85
19.07
19.47
19.88
20.19
20.37
20.46
20.57
20.77
21.01
21.15
20.97
20.25
18.81
16.6
13.79
10.66
7.55
4.75
2.31
0.11
-2.16
-4.84
-8.09
-11.85
-15.84
-19.67
-23.01
-25.76
-28.09
-30.36
-33.09
-36.7
-41.43
-47.16
-53.36
-59.07
-63.13
-64.46
-62.36
-56.82
-48.52
-38.59
-28.29
-18.62
-10.12
-2.9
3.22
8.45
12.9
16.56
19.38
21.37
22.64
23.38
23.79
24.0
24.04
23.92
23.64
23.29
23.04
23.05
23.33
23.77
24.09
23.99
23.22
21.69
19.47
16.79
13.95
11.24
8.81
6.65
4.56
2.22
-0.62
-4.03
-7.86
-11.78
-15.4
-18.5
-21.09
-23.48
-26.15
-29.54
-33.96
-39.45
-45.7
-52.14
-57.9
-61.97
-63.42
-61.61
-56.47
-48.53
-38.83
-28.57
-18.76
-9.96
-2.27
4.45
10.38
15.54
19.83
23.13
25.45
26.97
27.97
28.69
29.27
29.71
29.95
29.92
29.63
29.2
28.8
28.58
28.57
28.64
28.5
27.81
26.36
24.12
21.3
18.22
15.23
12.5
10.01
7.58
4.97
1.97
-1.48
-5.27
-9.16
-12.85
-16.11
-18.89
-21.38
-23.95
-27.09
-31.24
-36.61
-43.06
-50.06
-56.73
-61.95
-64.66
-64.1
-60.04
-52.85
-43.46
-33.04
-22.69
-13.2
-4.91
2.19
8.27
13.47
17.81
21.22
23.62
25.04
25.68
25.82
25.76
25.74
25.89
26.25
26.8
27.47
28.11
28.52
28.44
27.66
26.13
23.96
21.42
18.76
16.16
13.58
10.86
7.84
4.42
0.7
-3.12
-6.8
-10.24
-13.5
-16.8
-20.4
-24.55
-29.41
-35.02
-41.19
-47.49
-53.13
-57.08
-58.29
-56.08
-50.36
-41.81
-31.56
-20.92
-10.87
-1.92
5.84
12.53
18.24
22.9
26.4
28.72
30.0
30.62
30.93
31.24
31.61
31.97
32.18
32.18
32.0
31.73
31.45
31.15
30.67
29.79
28.26
25.94
22.83
19.12
15.12
11.17
7.48
4.06
0.68
-3.01
-7.31
-12.31
-17.85
-23.59
-29.13
-34.21
-38.82
-43.19
-47.75
-52.9
-58.91
-65.77
-73.05
-79.9
-85.15
-87.57
-86.12
-80.36
-70.56
-57.65
-43.01
-27.92
-13.32
0.41
13.34
25.72
37.67
49.02
59.33
68.15
75.19
80.48
84.34
87.13
89.09
90.23
90.4
89.47
87.5
84.72
81.5
78.12
74.67
71.07
67.1
62.57
57.41
51.69
45.58
39.31
33.14
27.25
21.7
16.42
11.21
5.84
0.18
-5.71
-11.56
-17.02
-21.82
-25.84
-29.2
-32.18
-35.15
-38.48
-42.46
-47.36
-53.22
-59.81
-66.48
-72.2
-75.74
-76.03
-72.54
-65.46
-55.65
-44.34
-32.78
-21.85
-11.94
-3.01
5.14
12.64
19.5
25.52
30.5
34.36
37.13
39.05
40.34
41.22
41.8
42.11
42.21
42.21
42.3
42.69
43.5
44.66
45.91
46.86
47.13
46.56
45.28
43.76
42.55
42.12
42.54
43.43
44.1
43.74
41.78
38.07
32.82
26.5
19.62
12.61
5.69
-1.03
-7.51
-13.78
-19.89
-26.0
-32.38
-39.29
-46.9
-55.04
-63.1
-70.06
-74.75
-76.16
-73.88
-68.2
-60.0
-50.41
-40.43
-30.72
-21.52
-12.86
-4.75
2.67
9.12
14.33
18.08
20.42
21.6
22.04
22.22
22.49
23.04
23.87
24.88
25.96
27.01
27.96
28.69
29.04
28.81
27.89
26.34
24.37
22.27
20.32
18.59
16.98
15.21
12.94
9.96
6.19
1.82
-2.87
-7.5
-11.77
-15.55
-18.87
-21.97
-25.27
-29.22
-34.16
-40.09
-46.47
-52.31
-56.32
-57.38
-54.89
-49.05
-40.73
-31.11
-21.37
-12.31
-4.29
2.67
8.69
13.89
18.29
21.84
24.49
26.26
27.26
27.74
27.98
28.2
28.52
28.89
29.17
29.23
29.05
28.72
28.39
28.15
27.99
27.73
27.15
26.03
24.23
21.74
18.68
15.28
11.78
8.44
5.35
2.47
-0.36
-3.39
-6.82
-10.7
-14.94
-19.3
-23.54
-27.46
-31.01
-34.32
-37.66
-41.43
-46.02
-51.63
-58.07
-64.63
-70.15
-73.32
-73.07
-68.95
-61.34
-51.25
-40.05
-29.0
-18.89
-10.04
-2.3
4.63
11.03
16.96
22.3
26.82
30.3
32.65
34.03
34.77
35.32
36.05
37.21
38.77
40.53
42.21
43.59
44.65
45.63
46.95
49.03
52.06
55.86
59.99
63.93
67.38
70.37
73.33
76.95
82.07
89.6
100.25
114.06
129.93
145.37
156.98
161.67
158.08
147.32
132.74
118.56
108.22
103.3
103.21
105.99
109.21
110.71
108.81
102.34
90.65
73.75
52.54
28.82
4.74
-17.75
-37.5
-54.3
-68.58
-80.92
-91.57
-100.32
-106.55
-109.66
-109.45
-106.26
-100.91
-94.38
-87.48
-80.71
-74.25
-68.12
-62.31
-56.81
-51.54
-46.35
-41.06
-35.58
-30.13
-25.27
-21.85
-20.84
-23.05
-28.76
-37.65
-48.78
-60.82
-72.5
-82.85
-91.43
-98.25
-103.6
-107.82
-111.12
-113.64
-115.43
-116.6
-117.27
-117.6
-117.63
-117.33
-116.6
-115.38
-113.71
-111.81
-109.92
-108.18
-106.43
-104.09
-100.26
-93.97
-84.63
-72.3
-57.78
-42.4
-27.51
-14.14
-2.71
6.82
14.7
21.11
26.08
29.55
31.57
32.41
32.54
32.46
32.51
32.81
33.21
33.49
33.46
33.08
32.42
31.61
30.7
29.66
28.28
26.34
23.71
20.41
16.64
12.7
8.92
5.55
2.73
0.44
-1.43
-3.06
-4.66
-6.43
-8.46
-10.78
-13.3
-15.88
-18.44
-20.89
-23.25
-25.57
-28.04
-30.86
-34.28
-38.31
-42.68
-46.68
-49.29
-49.54
-46.81
-41.13
-33.18
-24.05
-14.8
-6.14
1.68
8.78
15.37
21.54
27.15
32.0
35.89
38.82
40.93
42.41
43.42
44.0
44.11
43.8
43.16
42.42
41.8
41.47
41.42
41.5
41.46
41.08
40.21
38.8
36.87
34.54
31.94
29.23
26.52
23.89
21.31
18.65
15.77
12.58
9.07
5.36
1.64
-1.92
-5.22
-8.26
-11.12
-13.98
-17.05
-20.64
-25.0
-30.25
-36.2
-42.22
-47.31
-50.3
-50.24
-46.7
-39.98
-30.97
-20.86
-10.81
-1.6
6.39
13.1
18.66
23.22
26.92
29.84
32.07
33.69
34.77
35.4
35.67
35.71
35.61
35.47
35.33
35.2
35.09
35.07
35.16
35.36
35.58
35.58
35.14
34.06
32.33
30.05
27.38
24.48
21.48
18.45
15.47
12.63
9.92
7.3
4.58
1.55
-1.87
-5.61
-9.41
-12.94
-16.01
-18.62
-21.04
-23.65
-26.87
-30.94
-35.87
-41.37
-46.8
-51.28
-53.8
-53.53
-50.06
-43.56
-34.78
-24.81
-14.77
-5.52
2.45
9.01
14.28
18.43
21.63
23.97
25.51
26.33
26.51
26.24
25.76
25.3
25.03
24.97
25.01
25.0
24.87
24.63
24.39
24.17
23.83
23.04
21.47
19.0
15.77
12.23
8.85
6.04
3.85
2.07
0.31
-1.75
-4.26
-7.18
-10.32
-13.44
-16.33
-18.9
-21.19
-23.41
-25.91
-29.05
-33.04
-37.71
-42.46
-46.33
-48.26
-47.41
-43.49
-36.85
-28.35
-19.09
-10.09
-2.07
4.7
10.23
14.74
18.41
21.36
23.64
25.24
26.22
26.73
26.96
27.07
27.17
27.26
27.29
27.24
27.12
27.02
27.01
27.08
27.1
26.84
26.09
24.7
22.66
20.12
17.3
14.42
11.66
9.03
6.48
3.86
1.0
-2.16
-5.58
-9.11
-12.53
-15.7
-18.56
-21.25
-23.98
-27.05
-30.7
-35.1
-40.23
-45.76
-51.03
-55.09
-56.93
-55.77
-51.38
-44.17
-35.08
-25.27
-15.7
-6.99
0.68
7.37
13.21
18.24
22.41
25.68
28.08
29.71
30.73
31.29
31.5
31.46
31.26
30.98
30.68
30.4
30.16
29.95
29.77
29.55
29.23
28.65
27.68
26.21
24.25
21.85
19.19
16.4
13.61
10.86
8.14
5.37
2.49
-0.6
-3.92
-7.38
-10.81
-14.04
-16.91
-19.45
-21.85
-24.43
-27.57
-31.57
-36.55
-42.32
-48.34
-53.71
-57.35
-58.28
-55.92
-50.28
-42.06
-32.33
-22.26
-12.75
-4.33
2.83
8.79
13.67
17.56
20.61
22.96
24.79
26.27
27.47
28.41
29.04
29.35
29.39
29.3
29.24
29.28
29.39
29.48
29.39
29.02
28.3
27.28
26.01
24.58
23.04
21.4
19.6
17.6
15.38
12.97
10.49
8.03
5.62
3.18
0.55
-2.41
-5.7
-9.2
-12.66
-15.87
-18.71
-21.3
-23.89
-26.78
-30.26
-34.46
-39.39
-44.81
-50.22
-54.87
-57.82
-58.2
-55.49
-49.73
-41.59
-32.16
-22.58
-13.71
-5.96
0.69
6.41
11.41
15.73
19.3
22.05
24.0
25.27
26.04
26.52
26.85
27.14
27.44
27.72
27.91
27.92
27.66
27.15
26.47
25.76
25.06
24.28
23.23
21.72
19.71
17.31
14.82
12.52
10.53
8.7
6.73
4.31
1.3
-2.17
-5.78
-9.19
-12.23
-14.92
-17.49
-20.22
-23.3
-26.86
-30.96
-35.61
-40.8
-46.36
-51.77
-56.18
-58.57
-58.01
-54.12
-47.18
-38.07
-28.0
-18.07
-8.99
-1.02
5.91
11.94
17.12
21.34
24.49
26.5
27.54
27.96
28.18
28.54
29.17
29.99
30.8
31.38
31.61
31.53
31.22
30.76
30.16
29.34
28.26
26.89
25.26
23.45
21.52
19.47
17.3
14.97
12.55
10.11
7.71
5.43
3.24
1.02
-1.36
-4.05
-7.07
-10.38
-13.81
-17.19
-20.37
-23.34
-26.19
-29.14
-32.47
-36.51
-41.43
-47.16
-53.23
-58.73
-62.52
-63.52
-61.12
-55.33
-46.89
-36.96
-26.72
-17.1
-8.54
-1.09
5.43
11.23
16.4
20.92
24.66
27.54
29.58
30.88
31.63
32.03
32.21
32.24
32.16
32.04
32.02
32.24
32.73
33.35
33.8
33.75
32.98
31.49
29.52
27.41
25.4
23.57
21.79
19.89
17.67
15.12
12.36
9.58
6.96
4.57
2.34
0.1
-2.38
-5.26
-8.58
-12.19
-15.87
-19.39
-22.59
-25.51
-28.34
-31.38
-34.97
-39.37
-44.62
-50.46
-56.24
-61.03
-63.74
-63.53
-59.95
-53.17
-43.93
-33.31
-22.46
-12.29
-3.32
4.31
10.69
16.0
20.38
23.88
26.57
28.55
30.0
31.13
32.09
32.9
33.45
33.64
33.45
33.03
32.64
32.48
32.59
32.8
32.82
32.37
31.32
29.72
27.79
25.71
23.62
21.54
19.42
17.19
14.82
12.35
9.86
7.45
5.19
3.06
0.96
-1.29
-3.86
-6.85
-10.24
-13.86
-17.47
-20.89
-24.05
-27.0
-29.91
-32.99
-36.47
-40.54
-45.25
-50.42
-55.51
-59.62
-61.69
-60.86
-56.74
-49.66
-40.51
-30.46
-20.59
-11.63
-3.91
2.54
7.82
12.07
15.41
17.93
19.73
20.92
21.63
22.02
22.23
22.39
22.58
22.79
22.95
23.0
22.92
22.79
22.72
22.76
22.85
22.81
22.4
21.44
19.85
17.7
15.18
12.58
10.11
7.89
5.94
4.12
2.21
0.05
-2.46
-5.28
-8.28
-11.33
-14.3
-17.23
-20.21
-23.46
-27.17
-31.56
-36.79
-42.82
-49.38
-55.8
-61.08
-64.14
-64.04
-60.4
-53.53
-44.31
-33.99
-23.76
-14.44
-6.45
0.25
5.9
10.8
15.19
19.19
22.88
26.29
29.49
32.57
35.6
38.65
41.7
44.71
47.62
50.37
52.94
55.34
57.52
59.38
60.74
61.43
61.23
60.02
57.75
54.5
50.46
45.96
41.32
36.79
32.47
28.26
23.97
19.35
14.26
8.71
2.88
-2.93
-8.38
-13.23
-17.43
-21.09
-24.53
-28.16
-32.34
-37.31
-43.08
-49.31
-55.32
-60.16
-62.79
-62.38
-58.56
-51.6
-42.38
-32.13
-22.04
-12.94
-5.14
1.49
7.29
12.5
17.19
21.2
24.34
26.49
27.76
28.36
28.57
28.58
28.48
28.27
27.95
27.59
27.29
27.14
27.14
27.17
27.04
26.55
25.58
24.12
22.24
20.1
17.84
15.57
13.38
11.34
9.48
7.82
6.32
4.84
3.24
1.31
-1.04
-3.82
-6.92
-10.16
-13.37
-16.45
-19.4
-22.28
-25.25
-28.49
-32.26
-36.76
-41.96
-47.45
-52.37
-55.57
-55.95
-52.85
-46.36
-37.29
-26.87
-16.3
-6.45
2.31
10.02
16.81
22.77
27.83
31.89
34.88
36.93
38.28
39.22
39.99
40.68
41.27
41.67
41.83
41.74
41.46
41.08
40.66
40.17
39.5
38.49
36.96
34.81
32.03
28.71
25.03
21.21
17.42
13.79
10.3
6.89
3.4
-0.28
-4.15
-8.14
-12.08
-15.8
-19.23
-22.43
-25.61
-29.1
-33.24
-38.26
-44.26
-51.03
-58.02
-64.34
-68.99
-71.04
-69.96
-65.75
-58.98
-50.58
-41.58
-32.88
-25.04
-18.33
-12.78
-8.33
-4.87
-2.33
-0.59
0.5
1.15
1.55
1.85
2.16
2.52
2.93
3.41
3.99
4.71
5.57
6.53
7.44
8.04
8.04
7.2
5.46
2.97
0.11
-2.68
-5.08
-7.01
-8.7
-10.52
-12.83
-15.74
-19.09
-22.51
-25.63
-28.23
-30.34
-32.24
-34.37
-37.19
-40.98
-45.75
-51.12
-56.31
-60.21
-61.72
-60.05
-54.97
-46.96
-37.01
-26.33
-16.01
-6.72
1.29
8.12
14.0
19.14
23.67
27.54
30.68
32.96
34.36
34.96
34.99
34.77
34.59
34.59
34.77
34.98
35.06
34.94
34.62
34.13
33.48
32.55
31.19
29.33
26.96
24.2
21.27
18.34
15.5
12.78
10.07
7.3
4.38
1.25
-2.09
-5.6
-9.15
-12.63
-15.93
-19.04
-22.04
-25.13
-28.56
-32.62
-37.5
-43.27
-49.74
-56.36
-62.26
-66.32
-67.49
-65.08
-58.99
-49.77
-38.49
-26.42
-14.7
-4.11
4.99
12.63
19.05
24.56
29.38
33.58
37.13
39.99
42.15
43.71
44.86
45.72
46.42
46.98
47.41
47.7
47.85
47.81
47.49
46.76
45.48
43.62
41.27
38.63
35.93
33.3
30.79
28.33
25.84
23.24
20.53
17.71
14.82
11.91
8.98
6.0
2.88
-0.51
-4.3
-8.51
-13.08
-17.8
-22.43
-26.79
-30.9
-35.06
-39.74
-45.44
-52.46
-60.59
-69.11
-76.76
-82.09
-83.84
-81.35
-74.77
-65.09
-53.78
-42.32
-31.84
-22.86
-15.39
-9.12
-3.72
0.99
5.06
8.5
11.35
13.76
15.9
17.88
19.76
21.48
23.0
24.32
25.51
26.62
27.69
28.68
29.48
29.96
30.03
29.64
28.79
27.52
25.93
24.12
22.19
20.22
18.25
16.25
14.13
11.78
9.07
5.92
2.38
-1.4
-5.18
-8.72
-11.91
-14.88
-17.91
-21.38
-25.58
-30.64
-36.43
-42.57
-48.45
-53.24
-55.99
-55.83
-52.21
-45.15
-35.31
-23.8
-11.89
-0.62
9.42
18.1
25.56
31.97
37.36
41.64
44.68
46.43
47.04
46.85
46.24
45.54
44.98
44.61
44.42
44.34
44.32
44.29
44.18
43.89
43.31
42.31
40.78
38.63
35.85
32.55
29.01
25.61
22.68
20.35
18.4
16.46
14.06
10.96
7.26
3.3
-0.48
-3.77
-6.54
-9.05
-11.66
-14.79
-18.72
-23.63
-29.51
-36.05
-42.62
-48.24
-51.79
-52.28
-49.22
-42.82
-33.98
-24.0
-14.16
-5.35
2.07
8.23
13.49
18.2
22.49
26.25
29.24
31.22
32.14
32.2
31.75
31.18
30.73
30.46
30.28
30.06
29.8
29.54
29.4
29.35
29.24
28.81
27.83
26.23
24.07
21.54
18.79
15.93
12.98
9.93
6.78
3.59
0.39
-2.86
-6.25
-9.89
-13.83
-17.96
-22.07
-25.9
-29.31
-32.35
-35.33
-38.72
-42.93
-48.19
-54.43
-61.17
-67.56
-72.51
-74.88
-73.79
-68.88
-60.51
-49.66
-37.72
-26.03
-15.57
-6.77
0.46
6.48
11.68
16.28
20.28
23.57
26.05
27.72
28.75
29.44
30.06
30.79
31.63
32.45
33.11
33.55
33.82
34.05
34.31
34.52
34.46
33.83
32.42
30.18
27.24
23.93
20.57
17.39
14.46
11.68
8.82
5.68
2.15
-1.74
-5.81
-9.85
-13.65
-17.11
-20.23
-23.16
-26.13
-29.4
-33.23
-37.82
-43.2
-49.11
-54.97
-59.9
-62.81
-62.75
-59.19
-52.22
-42.6
-31.6
-20.58
-10.63
-2.33
4.26
9.44
13.57
16.89
19.49
21.33
22.45
23.01
23.23
23.38
23.57
23.78
23.92
23.9
23.76
23.64
23.67
23.91
24.19
24.2
23.58
22.12
19.83
16.96
13.88
10.91
8.21
5.69
3.12
0.2
-3.27
-7.31
-11.75
-16.33
-20.77
-24.98
-29.03
-33.17
-37.77
-43.11
-49.29
-56.03
-62.66
-68.17
-71.43
-71.5
-67.95
-60.98
-51.41
-40.37
-29.03
-18.23
-8.43
0.26
7.95
14.77
20.84
26.18
30.84
34.88
38.41
41.59
44.51
47.26
49.82
52.11
54.05
55.6
56.77
57.6
58.13
58.31
58.0
56.99
55.06
52.07
48.03
43.19
37.91
32.63
27.68
23.16
18.93
14.75
10.37
5.71
0.85
-4.02
-8.7
-13.04
-17.05
-20.8
-24.47
-28.35
-32.78
-38.07
-44.36
-51.38
-58.35
-64.09
-67.29
-66.96
-62.75
-55.13
-45.21
-34.37
-23.86
-14.5
-6.54
0.17
6.0
11.22
15.9
19.92
23.03
25.05
25.95
25.91
25.24
24.28
23.28
22.37
21.58
20.91
20.32
19.8
19.34
18.9
18.42
17.78
16.87
15.61
13.94
11.9
9.6
7.21
4.9
2.77
0.81
-1.16
-3.36
-5.97
-9.05
-12.46
-15.93
-19.18
-22.03
-24.54
-26.94
-29.65
-33.1
-37.6
-43.22
-49.64
-56.13
-61.64
-65.02
-65.28
-61.93
-55.15
-45.77
-35.0
-24.11
-14.04
-5.26
2.21
8.63
14.3
19.34
23.72
27.27
29.88
31.56
32.48
32.92
33.1
33.19
33.17
33.02
32.7
32.28
31.9
31.68
31.62
31.59
31.3
30.43
28.77
26.32
23.3
20.09
17.11
14.64
12.69
11.05
9.31
7.08
4.17
0.62
-3.25
-7.0
-10.28
-12.95
-15.12
-17.16
-19.51
-22.64
-26.81
-32.02
-37.92
-43.79
-48.61
-51.28
-50.86
-46.93
-39.71
-30.07
-19.25
-8.52
1.16
9.32
15.97
21.34
25.69
29.16
31.72
33.35
34.08
34.09
33.6
32.88
32.1
31.32
30.54
29.79
29.13
28.65
28.38
28.22
27.93
27.22
25.82
23.65
20.82
17.59
14.29
11.16
8.33
5.74
3.19
0.45
-2.69
-6.28
-10.19
-14.06
-17.52
-20.31
-22.42
-24.2
-26.23
-29.12
-33.28
-38.72
-44.92
-50.88
-55.33
-57.09
-55.43
-50.31
-42.38
-32.82
-22.87
-13.52
-5.29
1.75
7.76
12.91
17.25
20.7
23.22
24.9
25.96
26.74
27.49
28.33
29.21
29.95
30.38
30.47
30.28
30.03
29.89
29.88
29.89
29.68
28.97
27.57
25.48
22.82
19.83
16.74
13.75
10.91
8.23
5.63
2.96
0.09
-3.08
-6.6
-10.38
-14.23
-17.92
-21.27
-24.21
-26.86
-29.51
-32.57
-36.42
-41.32
-47.15
-53.38
-59.06
-62.99
-64.05
-61.53
-55.48
-46.6
-36.14
-25.37
-15.34
-6.58
0.86
7.16
12.61
17.41
21.66
25.37
28.54
31.12
33.08
34.4
35.1
35.3
35.16
34.88
34.62
34.5
34.55
34.72
34.94
35.06
34.96
34.47
33.51
32.01
30.02
27.66
25.11
22.56
20.16
18.01
16.05
14.17
12.14
9.79
7.06
4.06
1.02
-1.74
-4.08
-6.01
-7.75
-9.67
-12.14
-15.42
-19.64
-24.73
-30.34
-35.91
-40.6
-43.43
-43.56
-40.55
-34.53
-26.26
-16.86
-7.53
0.82
7.7
13.04
17.03
19.9
21.84
22.98
23.38
23.2
22.62
21.91
21.28
20.87
20.65
20.5
20.25
19.83
19.22
18.48
17.72
16.96
16.21
15.34
14.19
12.61
10.49
7.83
4.75
1.48
-1.75
-4.7
-7.23
-9.34
-11.14
-12.84
-14.68
-16.8
-19.23
-21.88
-24.51
-26.91
-28.94
-30.64
-32.27
-34.15
-36.64
-39.96
-44.09
-48.73
-53.23
-56.72
-58.22
-56.97
-52.63
-45.48
-36.38
-26.52
-17.07
-8.79
-1.98
3.53
8.05
11.84
14.99
17.41
19.04
19.92
20.27
20.38
20.52
20.8
21.19
21.57
21.85
22.0
22.07
22.08
21.97
21.61
20.8
19.45
17.58
15.34
12.94
10.56
8.25
5.99
3.7
1.33
-1.14
-3.66
-6.21
-8.76
-11.32
-13.9
-16.55
-19.34
-22.38
-25.81
-29.75
-34.17
-38.8
-43.08
-46.21
-47.34
-45.83
-41.47
-34.62
-26.11
-16.96
-8.15
-0.35
6.21
11.57
15.92
19.4
22.07
23.88
24.86
25.1
24.83
24.35
23.88
23.52
23.26
23.0
22.68
22.31
21.95
21.67
21.45
21.16
20.58
19.51
17.85
15.66
13.11
10.47
7.97
5.7
3.59
1.45
-0.97
-3.83
-7.17
-10.81
-14.53
-18.05
-21.22
-24.02
-26.59
-29.23
-32.29
-36.09
-40.78
-46.16
-51.62
-56.21
-58.84
-58.65
-55.22
-48.79
-40.13
-30.31
-20.37
-11.04
-2.72
4.58
10.97
16.61
21.55
25.76
29.19
31.89
34.0
35.78
37.46
39.19
40.93
42.61
44.17
45.66
47.22
49.01
51.14
53.57
56.14
58.59
60.58
61.72
61.62
59.94
56.5
51.34
44.73
37.11
28.94
20.59
12.3
4.22
-3.5
-10.67
-17.08
-22.59
-27.18
-30.98
-34.24
-37.25
-40.31
-43.71
-47.71
-52.51
-58.09
-64.04
-69.59
-73.68
-75.3
-73.9
-69.58
-63.11
-55.61
-48.17
-41.51
-35.84
-31.0
-26.65
-22.6
-18.79
-15.33
-12.3
-9.69
-7.38
-5.19
-3.01
-0.82
1.32
3.35
5.29
7.24
9.27
11.41
13.55
15.52
17.15
18.35
19.08
19.36
19.14
18.38
17.09
15.42
13.61
11.92
10.5
9.28
7.99
6.36
4.23
1.62
-1.27
-4.17
-6.86
-9.27
-11.45
-13.61
-16.02
-18.98
-22.75
-27.42
-32.84
-38.47
-43.44
-46.67
-47.19
-44.43
-38.46
-29.98
-20.14
-10.16
-0.98
6.91
13.46
18.86
23.34
27.01
29.91
32.0
33.37
34.18
34.66
35.05
35.44
35.82
36.09
36.16
36.02
35.72
35.41
35.15
34.91
34.56
33.88
32.69
30.95
28.8
26.46
24.15
21.98
19.93
17.8
15.4
12.61
9.46
6.14
2.9
-0.08
-2.72
-5.16
-7.64
-10.47
-13.96
-18.32
-23.57
-29.46
-35.39
-40.45
-43.6
-44.0
-41.28
-35.73
-28.21
-19.87
-11.82
-4.81
0.91
5.45
9.08
12.02
14.3
15.87
16.68
16.81
16.52
16.08
15.73
15.53
15.4
15.2
14.88
14.46
14.08
13.86
13.84
13.94
13.99
13.86
13.46
12.77
11.8
10.52
8.93
7.08
5.03
2.89
0.74
-1.42
-3.64
-6.04
-8.69
-11.59
-14.66
-17.77
-20.8
-23.67
-26.42
-29.15
-32.08
-35.47
-39.59
-44.56
-50.21
-55.97
-60.89
-63.85
-63.91
-60.6
-54.08
-45.1
-34.77
-24.21
-14.3
-5.55
1.9
8.18
13.49
18.04
21.93
25.15
27.6
29.2
29.96
30.02
29.67
29.22
28.92
28.85
28.94
29.06
29.12
29.09
29.02
28.91
28.67
28.09
26.93
25.05
22.51
19.56
16.51
13.67
11.13
8.8
6.47
3.88
0.87
-2.56
-6.3
-10.07
-13.64
-16.85
-19.69
-22.33
-25.03
-28.06
-31.69
-36.09
-41.32
-47.22
-53.28
-58.61
-62.12
-62.73
-59.81
-53.41
-44.3
-33.69
-22.86
-12.76
-3.88
3.76
10.29
15.87
20.53
24.22
26.96
28.88
30.23
31.29
32.28
33.26
34.13
34.7
34.83
34.53
33.97
33.41
33.12
33.14
33.31
33.25
32.58
31.08
28.82
26.11
23.35
20.83
18.61
16.51
14.28
11.69
8.67
5.24
1.56
-2.21
-5.88
-9.26
-12.26
-14.89
-17.34
-19.98
-23.24
-27.42
-32.53
-38.13
-43.36
-47.17
-48.5
-46.74
-41.84
-34.33
-25.21
-15.63
-6.53
1.52
8.34
14.01
18.69
22.45
25.26
27.1
28.05
28.37
28.42
28.49
28.77
29.21
29.67
30.02
30.23
30.4
30.66
31.07
31.55
31.88
31.84
31.24
30.04
28.35
26.35
24.29
22.34
20.61
19.05
17.51
15.78
13.69
11.18
8.33
5.3
2.26
-0.73
-3.71
-6.9
-10.56
-14.99
-20.42
-26.9
-34.2
-41.76
-48.66
-53.8
-56.17
-55.18
-50.89
-44.01
-35.69
-27.13
-19.24
-12.43
-6.65
-1.64
2.84
6.81
10.11
12.51
13.88
14.36
14.28
14.06
14.06
14.41
15.07
15.87
16.68
17.45
18.23
19.09
20.02
20.85
21.34
21.19
20.25
18.5
16.13
13.45
10.78
8.35
6.22
4.27
2.27
-0.01
-2.71
-5.79
-9.11
-12.45
-15.62
-18.55
-21.32
-24.09
-27.11
-30.64
-34.91
-40.11
-46.24
-52.99
-59.65
-65.13
-68.23
-67.98
-63.96
-56.51
-46.63
-35.62
-24.75
-14.87
-6.33
0.93
7.17
12.65
17.46
21.59
24.92
27.4
29.04
30.04
30.65
31.15
31.71
32.34
32.97
33.49
33.85
34.07
34.2
34.25
34.11
33.62
32.57
30.87
28.58
25.89
23.06
20.28
17.65
15.15
12.67
10.1
7.32
4.3
1.02
-2.46
-6.1
-9.85
-13.63
-17.39
-21.12
-24.81
-28.59
-32.67
-37.3
-42.73
-48.97
-55.72
-62.19
-67.28
-69.84
-69.01
-64.56
-56.97
-47.28
-36.73
-26.35
-16.78
-8.19
-0.51
6.4
12.56
17.85
22.12
25.29
27.43
28.8
29.73
30.57
31.51
32.56
33.64
34.55
35.16
35.46
35.51
35.44
35.29
35.01
34.42
33.29
31.47
28.92
25.79
22.33
18.87
15.58
12.53
9.59
6.57
3.26
-0.4
-4.26
-8.02
-11.31
-13.93
-15.96
-17.77
-19.92
-22.96
-27.25
-32.77
-39.13
-45.54
-51.03
-54.55
-55.25
-52.72
-47.08
-39.0
-29.54
-19.79
-10.61
-2.47
4.56
10.58
15.71
19.9
23.02
24.97
25.81
25.88
25.66
25.67
26.17
27.14
28.26
29.14
29.54
29.48
29.22
29.03
29.09
29.24
29.13
28.33
26.58
23.94
20.75
17.51
14.64
12.29
10.29
8.32
6.06
3.39
0.44
-2.5
-5.07
-7.07
-8.49
-9.46
-10.19
-10.84
-11.57
-12.56
-14.04
-16.25
-19.23
-22.62
-25.64
-27.24
-26.46
-22.9
-16.86
-9.29
-1.42
5.69
11.52
16.05
19.57
22.41
24.74
26.58
27.86
28.57
28.79
28.69
28.41
28.02
27.56
27.02
26.43
25.84
25.37
25.05
24.91
24.86
24.79
24.54
24.01
23.08
21.75
20.03
17.98
15.7
13.35
11.04
8.9
6.96
5.18
3.37
1.33
-1.15
-4.14
-7.54
-11.12
-14.58
-17.69
-20.42
-22.94
-25.6
-28.77
-32.76
-37.67
-43.33
-49.27
-54.73
-58.78
-60.48
-59.19
-54.76
-47.65
-38.75
-29.17
-19.87
-11.46
-4.13
2.22
7.81
12.79
17.19
20.9
23.8
25.82
27.01
27.55
27.69
27.7
27.75
27.92
28.2
28.56
28.94
29.31
29.56
29.6
29.28
28.49
27.21
25.5
23.48
21.27
18.97
16.69
14.49
12.44
10.61
8.98
7.43
5.78
3.82
1.41
-1.46
-4.66
-7.98
-11.21
-14.21
-16.96
-19.63
-22.44
-25.67
-29.56
-34.23
-39.57
-45.23
-50.5
-54.5
-56.29
-55.17
-50.95
-44.04
-35.34
-25.97
-16.91
-8.79
-1.81
4.08
9.04
13.11
16.24
18.4
19.66
20.23
20.41
20.45
20.49
20.54
20.5
20.29
19.92
19.48
19.14
19.02
19.14
19.39
19.53
19.3
18.48
17.02
15.06
12.87
10.78
9.01
7.61
6.44
5.22
3.64
1.51
-1.16
-4.2
-7.35
-10.39
-13.18
-15.76
-18.29
-21.01
-24.15
-27.91
-32.38
-37.39
-42.44
-46.64
-48.93
-48.36
-44.48
-37.56
-28.52
-18.64
-9.13
-0.82
5.99
11.36
15.47
18.47
20.39
21.27
21.25
20.64
19.82
19.16
18.82
18.77
18.79
18.66
18.24
17.55
16.77
16.06
15.5
14.97
14.24
13.02
11.14
8.64
5.73
2.73
-0.1
-2.63
-4.89
-7.04
-9.26
-11.68
-14.31
-17.03
-19.66
-22.0
-23.95
-25.57
-27.09
-28.91
-31.44
-34.86
-38.98
-43.12
-46.18
-47.02
-44.76
-39.16
-30.69
-20.37
-9.43
1.08
10.43
18.36
24.84
30.01
34.0
36.88
38.72
39.6
39.63
38.97
37.81
36.36
34.77
33.2
31.74
30.46
29.39
28.61
28.14
28.0
28.1
28.21
27.99
27.09
25.23
22.42
18.92
15.17
11.58
8.39
5.52
2.63
-0.66
-4.6
-9.15
-14.01
-18.71
-22.85
-26.27
-29.03
-31.46
-33.99
-37.06
-41.0
-45.98
-51.85
-58.09
-63.79
-67.77
-68.92
-66.57
-60.71
-52.1
-41.94
-31.53
-21.87
-13.48
-6.41
-0.46
4.57
8.83
12.34
15.12
17.19
18.63
19.59
20.22
20.64
20.96
21.21
21.37
21.46
21.49
21.53
21.64
21.78
21.82
21.51
20.59
18.92
16.52
13.58
10.42
7.33
4.52
2.01
-0.31
-2.66
-5.27
-8.28
-11.68
-15.31
-18.91
-22.25
-25.21
-27.89
-30.54
-33.45
-36.96
-41.24
-46.26
-51.68
-56.8
-60.67
-62.26
-60.81
-56.06
-48.42
-38.88
-28.68
-18.96
-10.45
-3.41
2.27
6.89
10.62
13.54
15.61
16.81
17.28
17.32
17.27
17.39
17.75
18.24
18.67
18.96
19.24
19.71
20.55
21.79
23.19
24.39
25.09
25.17
24.77
24.12
23.49
22.94
22.39
21.62
20.39
18.53
16.02
12.98
9.65
6.29
3.07
0.0
-3.16
-6.82
-11.4
-17.12
-23.82
-30.9
-37.41
-42.24
-44.43
-43.43
-39.28
-32.57
-24.31
-15.58
-7.32
-0.11
5.9
10.83
14.86
18.12
20.61
22.27
23.09
23.25
23.09
22.97
23.16
23.7
24.44
25.19
25.78
26.21
26.55
26.87
27.12
27.16
26.75
25.75
24.15
22.1
19.84
17.53
15.27
12.97
10.51
7.79
4.81
1.68
-1.41
-4.34
-7.05
-9.7
-12.54
-15.89
-20.01
-24.95
-30.46
-35.89
-40.31
-42.67
-42.07
-38.08
-30.95
-21.57
-11.23
-1.21
7.57
14.74
20.4
24.91
28.56
31.45
33.47
34.46
34.36
33.33
31.73
29.98
28.44
27.25
26.36
25.59
24.83
24.07
23.41
22.98
22.74
22.48
21.86
20.57
18.49
15.72
12.6
9.52
6.78
4.52
2.64
0.89
-1.05
-3.47
-6.52
-10.09
-13.93
-17.66
-20.98
-23.79
-26.3
-28.96
-32.32
-36.82
-42.58
-49.24
-55.98
-61.63
-65.01
-65.16
-61.71
-54.93
-45.66
-35.04
-24.26
-14.18
-5.29
2.31
8.8
14.36
19.11
23.05
26.09
28.23
29.57
30.37
30.92
31.46
32.07
32.69
33.19
33.47
33.52
33.43
33.26
33.05
32.7
32.06
30.96
29.3
27.03
24.25
21.17
18.02
15.06
12.42
10.06
7.83
5.45
2.69
-0.54
-4.21
-8.13
-12.1
-15.94
-19.6
-23.07
-26.43
-29.8
-33.35
-37.38
-42.11
-47.63
-53.61
-59.26
-63.35
-64.65
-62.33
-56.31
-47.36
-36.75
-25.85
-15.64
-6.61
1.22
7.95
13.68
18.36
21.95
24.5
26.25
27.51
28.54
29.44
30.18
30.7
31.05
31.32
31.64
32.08
32.58
32.98
33.16
33.03
32.55
31.71
30.44
28.62
26.17
23.09
19.55
15.81
12.17
8.82
5.8
3.0
0.25
-2.66
-5.86
-9.37
-13.04
-16.66
-20.0
-22.97
-25.66
-28.43
-31.7
-35.85
-41.0
-46.85
-52.66
-57.35
-59.81
-59.13
-54.93
-47.5
-37.75
-26.89
-16.15
-6.37
2.05
9.12
15.05
19.99
23.97
26.92
28.75
29.54
29.53
29.1
28.65
28.49
28.75
29.36
30.13
30.83
31.27
31.37
31.17
30.73
30.09
29.16
27.81
25.91
23.44
20.56
17.55
14.72
12.23
10.03
7.88
5.44
2.5
-0.98
-4.8
-8.67
-12.27
-15.44
-18.22
-20.82
-23.57
-26.83
-30.9
-35.97
-41.97
-48.5
-54.74
-59.57
-61.8
-60.52
-55.48
-47.21
-36.85
-25.84
-15.42
-6.32
1.28
7.65
13.13
17.92
22.02
25.26
27.53
28.85
29.48
29.78
30.1
30.65
31.44
32.38
33.3
34.11
34.77
35.3
35.67
35.79
35.54
34.81
33.63
32.11
30.4
28.65
26.92
25.19
23.41
21.53
19.57
17.53
15.43
13.23
10.87
8.34
5.66
2.95
0.36
-2.01
-4.15
-6.2
-8.43
-11.21
-14.89
-19.71
-25.62
-32.18
-38.54
-43.64
-46.45
-46.3
-43.12
-37.45
-30.25
-22.59
-15.3
-8.88
-3.46
1.05
4.77
7.76
10.02
11.55
12.4
12.71
12.69
12.55
12.48
12.58
12.85
13.22
13.64
14.03
14.35
14.6
14.76
14.76
14.52
13.94
12.93
11.42
9.41
7.0
4.35
1.68
-0.8
-3.02
-5.03
-7.04
-9.27
-11.87
-14.85
-18.05
-21.26
-24.32
-27.16
-29.8
-32.36
-34.98
-37.85
-41.21
-45.32
-50.33
-56.11
-62.06
-67.21
-70.34
-70.39
-66.8
-59.74
-50.02
-38.83
-27.38
-16.6
-7.0
1.24
8.13
13.72
18.07
21.22
23.3
24.53
25.24
25.8
26.47
27.36
28.37
29.29
29.93
30.23
30.31
30.37
30.54
30.8
30.92
30.57
29.49
27.61
25.06
22.14
19.17
16.39
13.9
11.66
9.51
7.22
4.6
1.55
-1.86
-5.46
-9.01
-12.33
-15.32
-18.01
-20.61
-23.39
-26.73
-30.94
-36.16
-42.09
-47.96
-52.55
-54.6
-53.17
-48.11
-40.04
-30.21
-19.96
-10.35
-1.92
5.26
11.34
16.46
20.66
23.87
26.05
27.3
27.85
28.0
28.02
28.08
28.24
28.44
28.62
28.73
28.76
28.76
28.72
28.56
28.1
27.14
25.55
23.32
20.63
17.74
14.91
12.28
9.79
7.26
4.44
1.18
-2.46
-6.26
-9.94
-13.29
-16.3
-19.14
-22.1
-25.51
-29.67
-34.72
-40.61
-46.93
-52.88
-57.39
-59.36
-57.96
-53.0
-44.99
-35.02
-24.39
-14.22
-5.26
2.23
8.29
13.12
16.9
19.73
21.69
22.91
23.58
23.97
24.3
24.75
25.35
26.06
26.8
27.53
28.24
28.94
29.61
30.12
30.28
29.85
28.69
26.8
24.33
21.52
18.61
15.71
12.79
9.66
6.05
1.75
-3.23
-8.68
-14.23
-19.47
-24.21
-28.5
-32.74
-37.46
-43.16
-50.04
-57.87
-65.96
-73.22
-78.41
-80.44
-78.7
-73.21
-64.7
-54.33
-43.35
-32.76
-23.11
-14.5
-6.74
0.34
6.87
12.74
17.78
21.76
24.54
26.11
26.62
26.4
25.82
25.26
24.88
24.64
24.29
23.54
22.27
20.59
18.89
17.65
17.27
17.93
19.53
21.78
24.34
27.01
29.83
33.14
37.39
43.1
50.53
59.72
70.41
82.22
94.66
107.21
119.37
130.65
140.72
149.41
156.78
163.04
168.28
172.3
174.4
173.54
168.59
158.82
144.17
125.3
103.39
79.68
55.22
30.74
6.93
-15.3
-34.63
-49.6
-59.13
-63.16
-62.86
-60.39
-58.13
-57.85
-60.27
-65.1
-71.56
-78.92
-86.8
-95.07
-103.63
-112.3
-120.88
-129.31
-137.61
-145.51
-151.98
-155.15
-152.68
-142.76
-125.13
-101.56
-75.48
-50.8
-30.7
-16.92
-9.66
-8.08
-10.71
-15.86
-21.85
-27.33
-31.53
-34.47
-36.79
-39.34
-42.55
-46.25
-49.86
-52.95
-55.67
-58.7
-62.78
-67.96
-73.42
-77.69
-79.49
-78.29
-74.5
-69.19
-63.35
-57.44
-51.3
-44.47
-36.67
-28.19
-19.81
-12.53
-7.03
-3.31
-0.74
1.71
4.89
9.16
14.27
19.61
24.66
29.22
33.58
38.14
43.15
48.38
53.2
56.92
59.2
60.28
60.92
62.13
64.61
68.6
73.82
79.75
85.85
91.66
96.87
101.29
105.03
108.51
112.19
116.17
119.53
120.3
115.88
104.24
84.83
59.16
30.31
1.97
-22.64
-41.33
-52.97
-57.24
-54.45
-45.58
-32.41
-17.22
-2.26
10.9
21.79
30.9
38.97
46.43
53.01
58.09
61.4
63.59
66.29
71.44
80.35
93.01
108.0
123.16
136.47
146.78
153.84
157.89
159.08
157.19
151.84
142.97
131.18
117.62
103.36
88.87
73.66
56.63
36.65
13.17
-13.36
-41.62
-69.75
-95.91
-118.7
-137.48
-152.33
-163.99
-173.48
-181.63
-188.72
-194.16
-196.79
-195.34
-189.11
-178.4
-164.48
-149.01
-133.41
-118.43
-104.09
-90.16
-76.49
-63.35
-51.21
-40.48
-31.24
-23.16
-15.77
-8.61
-1.45
5.86
13.47
21.64
30.72
40.92
52.13
63.71
74.65
83.74
89.97
92.79
92.22
88.73
82.93
75.28
65.94
54.75
41.43
25.9
8.5
-9.88
-27.96
-44.39
-58.14
-68.96
-77.43
-84.68
-91.81
-99.24
-106.47
-112.17
-114.9
-113.66
-108.34
-99.61
-88.48
-75.83
-62.09
-47.39
-31.75
-15.44
0.94
16.56
30.65
42.74
52.69
60.53
66.32
69.93
71.08
69.5
65.11
58.29
49.9
41.28
33.88
28.86
26.69
26.88
28.02
28.2
25.7
19.66
10.39
-0.74
-11.9
-21.6
-29.15
-34.72
-38.99
-42.56
-45.67
-48.11
-49.6
-50.07
-49.89
-49.6
-49.58
-49.82
-49.87
-49.21
-47.64
-45.42
-43.15
-41.35
-40.14
-39.15
-37.81
-35.72
-33.06
-30.55
-29.27
-30.25
-34.03
-40.41
-48.36
-56.04
-61.17
-61.56
-55.83
-43.98
-27.46
-8.84
9.05
24.01
34.97
42.07
46.17
48.34
49.36
49.59
49.14
48.09
46.65
45.14
43.88
43.11
42.79
42.74
42.61
42.06
40.82
38.86
36.33
33.59
30.97
28.58
26.18
23.23
19.15
13.62
6.7
-1.22
-9.66
-18.19
-26.45
-33.94
-39.88
-43.36
-43.71
-40.88
-35.52
-28.75
-21.59
-14.55
-7.61
-0.48
6.96
14.44
21.37
27.12
31.26
33.71
34.58
34.06
32.36
29.68
26.29
22.59
19.03
16.1
14.11
13.13
12.96
13.11
13.03
12.26
10.63
8.28
5.61
3.14
1.36
0.64
1.21
3.12
6.21
10.07
14.13
17.71
20.29
21.66
21.93
21.42
20.43
19.07
17.2
14.53
10.75
5.73
-0.41
-7.24
-14.08
-20.06
-24.25
-25.85
-24.37
-19.76
-12.43
-3.18
6.93
16.83
25.59
32.64
37.85
41.48
44.04
45.99
47.51
48.41
48.34
47.01
44.47
41.21
37.93
35.28
33.6
32.81
32.53
32.31
31.74
30.5
28.43
25.47
21.72
17.45
13.0
8.69
4.71
1.03
-2.45
-5.9
-9.4
-12.94
-16.45
-19.92
-23.37
-26.88
-30.56
-34.43
-38.51
-42.81
-47.34
-52.14
-57.16
-62.27
-67.14
-71.2
-73.69
-73.78
-70.94
-65.1
-56.85
-47.25
-37.47
-28.32
-20.11
-12.64
-5.53
1.45
8.14
14.08
18.74
21.71
22.88
22.44
20.76
18.29
15.43
12.48
9.65
7.1
5.02
3.6
3.08
3.67
5.43
8.22
11.78
15.69
19.53
22.97
25.8
28.05
29.87
31.49
33.05
34.52
35.74
36.45
36.43
35.54
33.61
30.41
25.65
19.08
10.61
0.54
-10.52
-21.66
-31.89
-40.26
-46.04
-48.79
-48.56
-45.85
-41.57
-36.74
-32.21
-28.43
-25.4
-22.9
-20.68
-18.76
-17.34
-16.67
-16.85
-17.69
-18.81
-19.93
-20.99
-22.25
-24.06
-26.54
-29.44
-32.01
-33.37
-32.87
-30.41
-26.59
-22.45
-19.11
-17.36
-17.42
-18.96
-21.32
-23.84
-26.09
-27.95
-29.58
-31.26
-33.15
-35.19
-37.14
-38.72
-39.79
-40.55
-41.51
-43.36
-46.68
-51.74
-58.34
-65.87
-73.4
-79.88
-84.24
-85.6
-83.45
-77.74
-69.03
-58.36
-46.93
-35.75
-25.42
-16.11
-7.71
-0.1
6.69
12.46
17.0
20.23
22.28
23.45
24.1
24.54
24.93
25.28
25.5
25.5
25.2
24.64
23.93
23.11
22.06
20.5
18.04
14.37
9.48
3.69
-2.37
-8.02
-12.75
-16.45
-19.4
-22.12
-25.06
-28.37
-31.82
-34.9
-37.15
-38.4
-38.92
-39.25
-40.06
-41.84
-44.79
-48.78
-53.42
-58.03
-61.74
-63.59
-62.75
-58.76
-51.75
-42.43
-31.86
-21.2
-11.25
-2.43
5.23
11.87
17.71
22.89
27.53
31.68
35.34
38.4
40.72
42.17
42.78
42.77
42.49
42.28
42.32
42.54
42.69
42.56
42.03
41.17
40.1
38.85
37.26
35.06
31.99
28.02
23.39
18.5
13.77
9.43
5.48
1.69
-2.24
-6.55
-11.41
-16.95
-23.25
-30.32
-37.93
-45.52
-52.17
-56.84
-58.65
-57.25
-52.87
-46.28
-38.47
-30.32
-22.4
-14.95
-8.03
-1.67
4.05
8.98
13.0
16.12
18.55
20.54
22.39
24.3
26.33
28.47
30.66
32.79
34.74
36.39
37.59
38.21
38.14
37.35
35.83
33.62
30.77
27.37
23.63
19.78
16.08
12.67
9.49
6.33
2.87
-1.18
-6.02
-11.7
-18.14
-25.12
-32.18
-38.64
-43.6
-46.19
-45.74
-42.09
-35.66
-27.26
-17.95
-8.61
0.16
8.04
14.88
20.54
24.92
27.99
29.93
31.1
31.98
32.95
34.18
35.57
36.89
37.93
38.57
38.86
38.91
38.8
38.55
38.1
37.39
36.33
34.82
32.75
30.03
26.67
22.83
18.75
14.66
10.73
6.94
3.15
-0.93
-5.57
-10.98
-17.2
-23.98
-30.76
-36.67
-40.72
-42.05
-40.15
-35.09
-27.49
-18.33
-8.65
0.68
9.1
16.34
22.3
26.95
30.25
32.15
32.76
32.31
31.22
29.98
28.99
28.51
28.54
28.93
29.49
30.05
30.53
30.93
31.2
31.21
30.75
29.51
27.28
24.01
19.89
15.32
10.78
6.64
3.05
-0.15
-3.28
-6.78
-10.96
-16.01
-21.88
-28.26
-34.54
-39.82
-42.98
-43.02
-39.32
-32.0
-21.84
-10.12
1.89
13.28
23.67
33.17
42.02
50.36
58.06
64.79
70.25
74.34
77.35
79.89
82.74
86.55
91.7
98.2
105.83
114.26
123.15
132.26
141.3
150.02
158.21
165.85
173.27
181.02
189.71
199.75
211.07
223.08
234.71
244.64
251.47
254.02
251.53
243.8
231.09
214.08
193.5
170.08
144.41
117.17
89.17
61.42
34.85
10.11
-12.76
-34.22
-54.98
-75.65
-96.44
-117.03
-136.81
-155.09
-171.4
-185.66
-198.14
-209.27
-219.37
-228.33
-235.48
-239.76
-240.0
-235.49
-226.25
-213.17
-197.65
-181.24
-165.14
-150.06
-136.25
-123.77
-112.66
-103.09
-95.23
-89.15
-84.68
-81.47
-79.19
-77.69
-77.09
-77.62
-79.39
-82.06
-84.7
-86.02
-84.71
-79.95
-71.78
-61.0
-48.89
-36.68
-25.24
-14.91
-5.69
2.6
10.01
16.46
21.77
25.79
28.58
30.37
31.6
32.73
34.08
35.68
37.3
38.5
38.91
38.31
36.66
34.05
30.54
26.17
20.98
15.1
8.88
2.68
-3.16
-8.5
-13.4
-18.07
-22.74
-27.54
-32.43
-37.15
-41.22
-43.97
-44.64
-42.61
-37.65
-30.05
-20.63
-10.48
-0.69
7.9
14.89
20.21
24.05
26.69
28.41
29.44
29.96
30.06
29.72
28.81
27.19
24.77
21.7
18.37
15.4
13.41
12.79
13.55
15.21
17.03
18.28
18.48
17.56
15.77
13.4
10.62
7.39
3.52
-1.21
-6.9
-13.48
-20.73
-28.33
-35.75
-42.3
-47.12
-49.41
-48.63
-44.74
-38.17
-29.7
-20.19
-10.38
-0.79
8.25
16.47
23.68
29.73
34.53
38.08
40.37
41.43
41.32
40.13
38.06
35.4
32.51
29.73
27.27
25.2
23.45
21.85
20.15
18.1
15.47
12.16
8.19
3.79
-0.72
-4.92
-8.51
-11.36
-13.59
-15.51
-17.52
-19.9
-22.66
-25.44
-27.6
-28.35
-27.09
-23.57
-18.02
-10.99
-3.22
4.66
12.19
19.12
25.31
30.64
34.93
37.99
39.67
39.96
39.02
37.13
34.69
32.12
29.71
27.67
26.01
24.65
23.41
22.16
20.78
19.22
17.51
15.7
13.88
12.09
10.27
8.25
5.79
2.74
-0.89
-4.89
-8.93
-12.67
-15.96
-18.89
-21.77
-24.98
-28.81
-33.26
-38.01
-42.39
-45.53
-46.62
-45.15
-41.07
-34.92
-27.61
-20.1
-13.21
-7.31
-2.42
1.7
5.35
8.71
11.83
14.56
16.76
18.3
19.22
19.63
19.66
19.34
18.52
16.97
14.48
11.09
7.11
3.11
-0.29
-2.6
-3.63
-3.49
-2.49
-1.04
0.39
1.38
1.54
0.63
-1.38
-4.22
-7.39
-10.32
-12.62
-14.24
-15.45
-16.7
-18.33
-20.33
-22.33
-23.71
-23.89
-22.58
-19.94
-16.43
-12.69
-9.21
-6.19
-3.51
-0.87
2.02
5.25
8.6
11.66
14.04
15.49
16.06
16.01
15.64
15.16
14.56
13.78
12.75
11.54
10.37
9.39
8.61
7.89
6.96
5.65
3.98
2.25
0.76
-0.27
-0.86
-1.3
-1.97
-3.12
-4.8
-6.81
-8.82
-10.56
-11.93
-13.01
-14.07
-15.42
-17.33
-19.95
-23.29
-27.14
-30.99
-34.13
-35.76
-35.23
-32.32
-27.31
-20.91
-13.99
-7.32
-1.38
3.65
7.77
11.04
13.51
15.18
16.13
16.48
16.38
16.0
15.5
14.95
14.44
13.98
13.58
13.26
13.05
12.97
13.02
13.12
13.12
12.83
12.1
10.87
9.24
7.4
5.62
4.14
3.15
2.66
2.56
2.54
2.26
1.42
-0.12
-2.3
-4.91
-7.7
-10.43
-13.0
-15.37
-17.6
-19.82
-22.06
-24.27
-26.19
-27.34
-27.22
-25.44
-21.96
-17.14
-11.61
-6.08
-1.08
3.18
6.75
9.81
12.5
14.79
16.6
17.79
18.34
18.35
18.05
17.69
17.51
17.67
18.25
19.24
20.58
22.13
23.74
25.24
26.48
27.34
27.74
27.6
26.89
25.63
24.01
22.27
20.67
19.34
18.19
16.96
15.33
13.04
10.07
6.62
3.02
-0.39
-3.42
-6.04
-8.43
-10.84
-13.56
-16.82
-20.73
-25.19
-29.94
-34.53
-38.36
-40.8
-41.33
-39.69
-35.99
-30.69
-24.53
-18.29
-12.56
-7.71
-3.83
-0.91
1.1
2.24
2.58
2.34
1.87
1.59
1.83
2.66
3.9
5.24
6.4
7.29
8.09
9.1
10.63
12.77
15.33
17.87
19.88
20.93
20.85
19.79
18.1
16.19
14.38
12.73
11.07
9.2
6.96
4.43
1.83
-0.61
-2.77
-4.74
-6.81
-9.27
-12.32
-15.96
-20.07
-24.39
-28.54
-32.1
-34.58
-35.52
-34.65
-31.94
-27.69
-22.37
-16.52
-10.59
-4.92
0.17
4.41
7.53
9.39
10.06
9.88
9.3
8.74
8.43
8.35
8.34
8.25
8.04
7.78
7.62
7.63
7.79
7.98
8.08
8.03
7.8
7.4
6.75
5.8
4.52
3.02
1.5
0.23
-0.62
-1.09
-1.45
-2.09
-3.3
-5.17
-7.53
-9.99
-12.17
-13.86
-15.1
-16.17
-17.44
-19.29
-21.96
-25.5
-29.66
-33.97
-37.73
-40.18
-40.65
-38.77
-34.6
-28.62
-21.62
-14.48
-7.9
-2.35
2.05
5.37
7.77
9.42
10.41
10.79
10.62
10.04
9.26
8.53
8.1
8.09
8.52
9.24
10.06
10.78
11.33
11.68
11.92
12.13
12.31
12.39
12.2
11.62
10.59
9.13
7.35
5.4
3.38
1.38
-0.59
-2.52
-4.45
-6.38
-8.34
-10.33
-12.33
-14.32
-16.26
-18.14
-19.98
-21.84
-23.83
-26.15
-28.98
-32.4
-36.19
-39.79
-42.36
-43.02
-41.13
-36.59
-29.88
-21.91
-13.73
-6.19
0.23
5.49
9.75
13.24
16.05
18.15
19.47
20.02
19.96
19.61
19.22
18.93
18.67
18.31
17.79
17.22
16.86
16.91
17.39
18.12
18.78
19.11
19.04
18.66
18.16
17.68
17.29
16.94
16.59
16.17
15.65
14.93
13.92
12.52
10.62
8.19
5.23
1.77
-2.1
-6.32
-10.89
-15.97
-21.77
-28.53
-36.26
-44.62
-52.97
-60.42
-65.99
-68.72
-67.69
-62.05
-51.08
-34.49
-12.61
13.4
41.69
70.06
96.38
119.03
137.04
150.02
158.01
161.3
160.34
155.71
148.11
138.28
126.91
114.54
101.39
87.47
72.63
56.79
40.17
23.46
7.66
-6.03
-16.66
-23.83
-27.79
-29.36
-29.6
-29.5
-29.65
-30.18
-30.88
-31.44
-31.61
-31.33
-30.72
-29.96
-29.25
-28.74
-28.53
-28.68
-29.24
-30.19
-31.48
-32.97
-34.52
-36.02
-37.55
-39.38
-41.93
-45.59
-50.52
-56.31
-61.98
-66.04
-66.97
-63.69
-56.03
-44.83
-31.74
-18.61
-6.99
2.27
9.06
13.72
16.73
18.49
19.22
19.1
18.37
17.37
16.52
16.12
16.25
16.81
17.52
18.12
18.44
18.48
18.36
18.2
18.08
17.98
17.76
17.26
16.42
15.23
13.84
12.43
11.17
10.2
9.53
9.14
8.91
8.68
8.3
7.58
6.43
4.84
2.89
0.68
-1.73
-4.42
-7.57
-11.37
-15.85
-20.87
-26.17
-31.49
-36.64
-41.38
-45.32
-47.7
-47.58
-44.11
-37.05
-27.01
-15.37
-3.87
6.1
13.82
19.39
23.36
26.32
28.54
29.97
30.36
29.65
28.02
25.97
24.05
22.71
22.07
21.95
22.04
22.05
21.87
21.56
21.22
20.84
20.31
19.46
18.17
16.47
14.57
12.74
11.18
9.94
8.96
8.13
7.39
6.77
6.3
5.98
5.72
5.4
4.91
4.28
3.61
3.01
2.5
1.91
0.93
-0.75
-3.38
-7.09
-11.91
-17.76
-24.44
-31.47
-38.02
-42.91
-44.89
-43.11
-37.49
-28.86
-18.72
-8.7
-0.02
6.79
11.86
15.58
18.31
20.17
21.05
20.87
19.7
17.89
15.91
14.2
13.0
12.35
12.1
12.02
11.87
11.48
10.76
9.68
8.3
6.7
4.99
3.25
1.51
-0.22
-1.96
-3.75
-5.57
-7.39
-9.14
-10.74
-12.15
-13.4
-14.56
-15.76
-17.08
-18.54
-20.05
-21.5
-22.84
-24.17
-25.69
-27.69
-30.44
-34.19
-39.1
-45.27
-52.6
-60.69
-68.64
-75.06
-78.3
-76.87
-70.06
-58.18
-42.61
-25.34
-8.4
6.73
19.28
29.13
36.48
41.53
44.42
45.25
44.25
41.89
38.79
35.56
32.67
30.32
28.49
27.04
25.8
24.58
23.25
21.7
19.87
17.75
15.43
13.01
10.61
8.3
6.12
4.04
1.95
-0.29
-2.8
-5.67
-8.82
-12.02
-15.04
-17.67
-19.96
-22.17
-24.65
-27.71
-31.43
-35.59
-39.79
-43.61
-46.83
-49.52
-52.1
-55.21
-59.53
-65.56
-73.32
-82.12
-90.5
-96.46
-98.02
-93.88
-83.96
-69.53
-52.77
-36.05
-21.17
-8.97
0.62
8.14
14.08
18.63
21.75
23.42
23.9
23.76
23.67
24.11
25.18
26.59
27.92
28.82
29.18
29.17
29.02
28.93
28.91
28.76
28.22
27.06
25.17
22.58
19.52
16.3
13.22
10.51
8.22
6.2
4.17
1.83
-1.02
-4.43
-8.22
-12.16
-16.0
-19.59
-22.93
-26.14
-29.46
-33.21
-37.68
-43.2
-49.85
-57.35
-64.82
-70.9
-73.95
-72.61
-66.3
-55.51
-41.65
-26.6
-12.1
0.74
11.48
20.18
27.06
32.21
35.58
37.19
37.26
36.31
35.1
34.26
34.22
35.01
36.37
37.92
39.31
40.35
40.97
41.17
40.98
40.38
39.33
37.81
35.79
33.25
30.19
26.65
22.71
18.55
14.4
10.47
6.88
3.58
0.4
-2.98
-6.81
-11.2
-16.06
-21.1
-25.95
-30.34
-34.18
-37.7
-41.3
-45.49
-50.77
-57.51
-65.77
-75.11
-84.49
-92.22
-96.28
-94.98
-87.55
-74.67
-58.32
-41.17
-25.67
-13.26
-4.13
2.52
7.8
12.52
16.91
20.77
23.79
25.91
27.4
28.71
30.23
32.09
34.21
36.4
38.59
40.9
43.51
46.52
49.75
52.74
54.81
55.39
54.2
51.35
47.3
42.68
38.02
33.61
29.42
25.17
20.54
15.32
9.54
3.5
-2.42
-7.89
-12.87
-17.59
-22.49
-27.96
-34.14
-40.83
-47.61
-54.02
-59.81
-65.1
-70.39
-76.37
-83.71
-92.68
-102.99
-113.59
-122.84
-128.83
-129.88
-125.04
-114.36
-98.85
-80.2
-60.26
-40.61
-22.28
-5.78
8.83
21.68
32.93
42.69
50.96
57.74
63.07
67.12
70.22
72.75
75.06
77.35
79.66
81.89
83.89
85.55
86.74
87.31
87.09
85.84
83.37
79.66
74.9
69.53
64.07
58.93
54.28
49.98
45.67
40.9
35.38
29.06
22.26
15.48
9.22
3.75
-0.99
-5.46
-10.22
-15.8
-22.4
-29.81
-37.54
-45.0
-51.86
-58.15
-64.3
-71.01
-78.98
-88.68
-100.14
-112.69
-124.91
-134.8
-140.17
-139.25
-131.26
-116.69
-97.23
-75.25
-53.11
-32.6
-14.64
0.64
13.56
24.56
33.89
41.63
47.75
52.32
55.6
58.07
60.27
62.61
65.28
68.23
71.24
74.13
76.78
79.15
81.2
82.76
83.53
83.2
81.58
78.73
75.01
70.95
67.08
63.72
60.89
58.35
55.7
52.56
48.73
44.22
39.31
34.41
29.93
26.14
23.02
20.29
17.41
13.81
9.13
3.34
-3.32
-10.35
-17.34
-24.11
-30.79
-37.79
-45.68
-55.0
-66.01
-78.44
-91.32
-102.97
-111.24
-114.06
-110.1
-99.28
-82.85
-63.12
-42.69
-23.76
-7.64
5.37
15.66
23.89
30.59
36.02
40.23
43.18
44.96
45.73
45.73
45.2
44.32
43.33
42.51
42.26
42.88
44.5
46.92
49.6
51.83
53.0
52.77
51.22
48.76
45.97
43.36
41.24
39.6
38.25
36.85
35.14
32.99
30.47
27.77
25.09
22.51
19.94
17.16
13.92
10.08
5.68
0.91
-3.95
-8.68
-13.25
-17.86
-22.84
-28.66
-35.66
-43.88
-52.86
-61.48
-68.11
-70.9
-68.34
-59.84
-46.07
-28.87
-10.74
5.9
19.38
29.1
35.33
38.84
40.39
40.53
39.6
37.89
35.77
33.67
32.0
30.95
30.52
30.53
30.75
31.05
31.4
31.88
32.53
33.37
34.25
34.96
35.21
34.73
33.35
31.1
28.17
24.83
21.37
17.96
14.67
11.44
8.18
4.76
1.01
-3.16
-7.81
-12.81
-17.9
-22.75
-27.12
-30.99
-34.59
-38.42
-43.02
-48.91
-56.34
-65.18
-74.76
-83.76
-90.42
-92.84
-89.64
-80.48
-66.26
-48.91
-30.77
-13.85
0.63
12.37
21.74
29.35
35.66
40.92
45.1
48.19
50.24
51.45
52.09
52.44
52.66
52.83
52.96
53.07
53.18
53.31
53.39
53.2
52.44
50.87
48.42
45.22
41.59
37.83
34.12
30.46
26.78
23.0
19.14
15.29
11.53
7.84
4.07
0.05
-4.42
-9.34
-14.6
-19.94
-25.11
-29.94
-34.44
-38.75
-43.17
-48.1
-54.0
-61.2
-69.68
-78.83
-87.31
-93.28
-94.86
-90.72
-80.67
-65.7
-47.75
-29.08
-11.64
3.35
15.45
24.84
31.96
37.35
41.41
44.47
46.75
48.38
49.47
50.08
50.31
50.27
50.08
49.86
49.69
49.61
49.59
49.54
49.31
48.74
47.64
45.89
43.46
40.43
36.99
33.34
29.61
25.89
22.16
18.41
14.69
11.07
7.62
4.35
1.12
-2.3
-6.16
-10.57
-15.49
-20.68
-25.8
-30.63
-35.1
-39.37
-43.82
-48.89
-55.01
-62.37
-70.81
-79.56
-87.33
-92.4
-93.15
-88.53
-78.51
-64.17
-47.41
-30.32
-14.62
-1.23
9.71
18.58
25.88
31.93
36.82
40.51
43.0
44.44
45.1
45.31
45.35
45.37
45.42
45.51
45.62
45.78
45.96
46.05
45.86
45.13
43.71
41.57
38.9
35.95
32.91
29.86
26.69
23.25
19.51
15.54
11.57
7.84
4.45
1.31
-1.83
-5.26
-9.15
-13.48
-18.04
-22.52
-26.72
-30.57
-34.3
-38.27
-42.94
-48.68
-55.65
-63.64
-71.96
-79.38
-84.38
-85.48
-81.73
-73.08
-60.5
-45.68
-30.52
-16.55
-4.61
5.2
13.22
19.89
25.46
29.97
33.32
35.47
36.62
37.11
37.39
37.76
38.33
39.01
39.63
40.07
40.33
40.49
40.62
40.64
40.38
39.6
38.11
35.9
33.1
29.95
26.68
23.42
20.24
17.12
14.04
10.97
7.9
4.73
1.34
-2.41
-6.58
-11.14
-15.9
-20.64
-25.13
-29.3
-33.24
-37.19
-41.47
-46.45
-52.44
-59.55
-67.5
-75.52
-82.26
-86.11
-85.65
-80.11
-69.71
-55.65
-39.71
-23.76
-9.2
3.24
13.42
21.61
28.17
33.35
37.29
40.06
41.76
42.55
42.69
42.5
42.27
42.18
42.27
42.43
42.49
42.29
41.77
41.0
40.08
39.04
37.84
36.33
34.34
31.76
28.65
25.19
21.65
18.25
15.18
12.44
9.96
7.56
5.0
2.07
-1.37
-5.3
-9.58
-13.94
-18.1
-21.92
-25.4
-28.76
-32.34
-36.56
-41.83
-48.42
-56.34
-65.09
-73.61
-80.33
-83.56
-81.98
-75.17
-63.81
-49.47
-34.11
-19.43
-6.49
4.34
13.23
20.5
26.34
30.77
33.77
35.38
35.81
35.46
34.75
34.05
33.52
33.17
32.88
32.58
32.25
31.94
31.69
31.44
30.98
30.02
28.31
25.75
22.47
18.82
15.22
12.0
9.27
6.82
4.23
1.08
-2.82
-7.31
-11.93
-16.1
-19.39
-21.74
-23.52
-25.44
-28.28
-32.73
-39.06
-47.03
-55.76
-63.84
-69.62
-71.66
-69.21
-62.44
-52.51
-41.05
-29.74
-19.74
-11.56
-5.12
-0.1
3.77
6.62
8.41
9.22
9.28
8.98
8.8
9.11
10.06
11.6
13.5
15.52
17.47
19.23
20.77
22.06
23.01
23.48
23.26
22.17
20.13
17.23
13.74
10.09
6.7
3.82
1.46
-0.69
-3.07
-6.1
-9.97
-14.56
-19.49
-24.34
-28.83
-32.98
-37.06
-41.54
-46.89
-53.44
-61.22
-69.81
-78.28
-85.31
-89.39
-89.3
-84.47
-75.2
-62.63
-48.36
-34.0
-20.71
-9.11
0.76
9.12
16.25
22.29
27.2
30.85
33.2
34.4
34.84
35.04
35.48
36.37
37.65
39.05
40.23
41.02
41.41
41.53
41.48
41.23
40.61
39.34
37.24
34.34
30.82
27.04
23.33
19.87
16.65
13.45
9.97
5.94
1.22
-4.12
-9.82
-15.54
-20.93
-25.78
-30.09
-34.09
-38.16
-42.77
-48.35
-55.21
-63.31
-72.23
-81.04
-88.36
-92.63
-92.51
-87.3
-77.25
-63.55
-47.94
-32.25
-17.8
-5.23
5.48
14.73
22.9
30.18
36.49
41.59
45.29
47.55
48.61
48.84
48.69
48.49
48.45
48.58
48.77
48.91
48.88
48.65
48.21
47.56
46.64
45.33
43.53
41.19
38.32
35.02
31.41
27.64
23.87
20.18
16.64
13.19
9.71
5.98
1.78
-2.98
-8.24
-13.75
-19.14
-24.13
-28.62
-32.77
-36.97
-41.75
-47.62
-54.87
-63.37
-72.44
-80.83
-86.89
-89.04
-86.22
-78.28
-66.14
-51.44
-36.09
-21.69
-9.14
1.37
10.18
17.75
24.44
30.34
35.34
39.33
42.25
44.25
45.6
46.65
47.67
48.78
49.96
51.11
52.12
52.94
53.59
54.07
54.29
54.08
53.2
51.49
48.95
45.75
42.17
38.49
34.86
31.27
27.62
23.84
19.91
15.87
11.7
7.33
2.63
-2.53
-8.11
-13.94
-19.76
-25.34
-30.64
-35.84
-41.32
-47.5
-54.73
-63.1
-72.36
-81.79
-90.19
-96.08
-98.0
-94.95
-86.73
-74.11
-58.61
-42.02
-25.92
-11.32
1.42
12.36
21.65
29.34
35.27
39.28
41.36
41.88
41.47
40.9
40.79
41.41
42.66
44.2
45.65
46.8
47.6
48.13
48.37
48.19
47.32
45.5
42.64
38.89
34.62
30.24
26.06
22.13
18.3
14.3
9.94
5.28
0.58
-3.79
-7.54
-10.65
-13.4
-16.29
-19.88
-24.67
-30.83
-38.13
-45.82
-52.71
-57.35
-58.44
-55.19
-47.67
-36.84
-24.21
-11.48
0.03
9.58
17.06
22.68
26.79
29.68
31.55
32.57
32.95
32.95
32.88
32.95
33.26
33.72
34.18
34.44
34.47
34.34
34.23
34.23
34.23
33.92
32.92
30.95
28.01
24.41
20.62
17.1
14.07
11.44
8.91
6.05
2.58
-1.61
-6.35
-11.28
-16.06
-20.42
-24.35
-28.03
-31.9
-36.47
-42.16
-49.12
-56.97
-64.72
-70.87
-73.84
-72.42
-66.26
-56.04
-43.23
-29.6
-16.66
-5.27
4.35
12.41
19.15
24.66
28.9
31.8
33.48
34.26
34.61
34.94
35.43
35.98
36.37
36.37
35.99
35.43
35.0
34.91
35.16
35.43
35.23
34.12
31.84
28.47
24.42
20.21
16.29
12.9
9.94
7.11
4.04
0.43
-3.79
-8.44
-13.23
-17.84
-22.05
-25.87
-29.48
-33.21
-37.51
-42.76
-49.18
-56.57
-64.23
-70.94
-75.18
-75.6
-71.42
-62.83
-50.92
-37.34
-23.74
-11.38
-0.79
8.02
15.34
21.41
26.34
30.13
32.74
34.29
35.04
35.3
35.38
35.41
35.41
35.25
34.84
34.18
33.41
32.76
32.4
32.3
32.15
31.46
29.79
26.97
23.21
19.07
15.21
12.06
9.71
7.79
5.74
2.98
-0.77
-5.42
-10.52
-15.53
-20.0
-23.76
-27.01
-30.17
-33.75
-38.24
-43.92
-50.76
-58.31
-65.62
-71.34
-74.02
-72.52
-66.46
-56.4
-43.73
-30.24
-17.53
-6.61
2.2
9.13
14.56
18.78
21.85
23.72
24.41
24.07
23.05
21.73
20.45
19.39
18.58
17.97
17.51
17.16
16.91
16.68
16.36
15.75
14.64
12.89
10.47
7.51
4.32
1.29
-1.21
-2.99
-4.13
-4.97
-6.04
-7.79
-10.44
-13.87
-17.64
-21.22
-24.19
-26.49
-28.41
-30.52
-33.42
-37.56
-43.06
-49.64
-56.64
-63.0
-67.51
-68.99
-66.66
-60.34
-50.58
-38.49
-25.47
-12.8
-1.41
8.27
16.21
22.58
27.58
31.33
33.9
35.36
35.88
35.76
35.37
35.05
35.03
35.38
36.03
36.86
37.73
38.52
39.04
39.09
38.43
36.89
34.43
31.24
27.62
23.97
20.57
17.56
14.87
12.27
9.49
6.29
2.61
-1.44
-5.59
-9.55
-13.11
-16.32
-19.44
-22.96
-27.35
-32.91
-39.53
-46.54
-52.76
-56.78
-57.33
-53.72
-46.11
-35.48
-23.33
-11.21
-0.29
8.84
16.15
21.86
26.24
29.4
31.38
32.18
31.92
30.89
29.5
28.14
27.08
26.38
25.93
25.55
25.11
24.6
24.1
23.68
23.26
22.61
21.4
19.41
16.67
13.49
10.3
7.44
4.98
2.64
-0.0
-3.3
-7.33
-11.85
-16.39
-20.5
-23.94
-26.81
-29.47
-32.47
-36.35
-41.49
-47.92
-55.17
-62.27
-67.85
-70.44
-68.92
-62.93
-52.99
-40.41
-26.84
-13.8
-2.3
7.31
15.14
21.5
26.66
30.7
33.63
35.49
36.44
36.82
37.02
37.33
37.85
38.44
38.88
39.02
38.86
38.6
38.49
38.65
38.93
38.93
38.16
36.25
33.17
29.23
24.95
20.83
17.12
13.76
10.49
7.0
3.1
-1.16
-5.58
-9.89
-13.85
-17.4
-20.63
-23.85
-27.5
-32.06
-37.91
-45.04
-52.92
-60.43
-66.04
-68.22
-65.95
-59.04
-48.25
-35.04
-21.09
-7.77
4.16
14.59
23.79
32.11
39.63
46.12
51.14
54.37
55.81
55.89
55.34
54.92
55.09
55.89
57.02
58.06
58.73
58.99
59.03
59.04
59.04
58.74
57.65
55.29
51.47
46.4
40.65
34.96
29.84
25.42
21.41
17.33
12.8
7.8
2.67
-2.04
-5.85
-8.59
-10.41
-11.62
-12.5
-13.19
-13.76
-14.3
-15.09
-16.38
-18.29
-20.5
-22.26
-22.63
-20.86
-16.82
-11.04
-4.45
1.99
7.74
12.63
16.8
20.25
22.73
23.79
23.09
20.6
16.81
12.49
8.49
5.42
3.45
2.39
1.78
1.11
0.02
-1.6
-3.62
-5.77
-7.8
-9.61
-11.34
-13.22
-15.51
-18.28
-21.36
-24.44
-27.18
-29.41
-31.18
-32.76
-34.51
-36.71
-39.51
-42.85
-46.53
-50.22
-53.65
-56.71
-59.5
-62.4
-66.0
-70.93
-77.66
-86.18
-95.78
-105.0
-111.9
-114.64
-112.13
-104.45
-92.85
-79.29
-65.68
-53.22
-42.18
-32.14
-22.45
-12.84
-3.51
4.96
11.99
17.37
21.41
24.94
29.17
35.5
45.34
59.81
79.22
102.66
127.83
151.32
169.52
179.66
180.73
173.69
161.02
145.7
130.33
116.5
104.93
95.71
88.69
83.65
80.23
77.84
75.72
73.16
69.66
65.07
59.48
52.95
45.36
36.35
25.5
12.49
-2.66
-19.6
-37.64
-55.95
-73.62
-89.89
-104.21
-116.27
-125.98
-133.34
-138.34
-140.87
-140.83
-138.17
-133.06
-125.89
-117.17
-107.38
-96.86
-85.84
-74.51
-63.17
-52.2
-42.0
-32.92
-25.12
-18.7
-13.72
-10.32
-8.66
-8.74
-10.23
-12.51
-14.85
-16.62
-17.61
-18.05
-18.42
-19.2
-20.67
-22.88
-25.72
-29.18
-33.4
-38.62
-45.08
-52.84
-61.62
-70.87
-79.9
-88.0
-94.65
-99.6
-102.73
-103.92
-102.9
-99.28
-92.71
-83.2
-71.25
-57.91
-44.5
-32.42
-22.87
-16.9
-15.47
-19.43
-29.31
-44.84
-64.67
-86.47
-107.47
-125.34
-138.89
-148.1
-153.65
-156.15
-155.54
-151.2
-142.55
-129.86
-114.6
-99.14
-85.93
-76.6
-71.45
-69.57
-69.46
-69.68
-69.31
-67.97
-65.71
-62.78
-59.6
-56.79
-55.16
-55.65
-59.03
-65.51
-74.49
-84.51
-93.47
-99.08
-99.44
-93.5
-81.29
-63.88
-43.03
-20.76
1.14
21.48
39.74
55.97
70.53
83.72
95.54
105.69
113.75
119.45
122.94
124.81
125.85
126.77
127.98
129.46
131.01
132.35
133.32
133.85
133.87
133.23
131.76
129.33
125.92
121.68
116.81
111.44
105.62
99.32
92.54
85.37
78.01
70.73
63.69
56.94
50.32
43.5
36.05
27.56
17.77
6.74
-4.97
-16.23
-25.51
-31.24
-32.23
-28.1
-19.39
-7.4
6.25
20.13
33.3
45.41
56.52
66.77
76.13
84.35
91.03
95.82
98.65
99.75
99.59
98.68
97.44
96.11
94.71
93.22
91.6
89.9
88.18
86.39
84.36
81.83
78.53
74.36
69.5
64.31
59.24
54.59
50.38
46.36
42.17
37.5
32.31
26.79
21.3
16.17
11.55
7.37
3.33
-1.02
-6.11
-12.27
-19.53
-27.49
-35.26
-41.61
-45.2
-44.99
-40.48
-31.95
-20.37
-7.13
6.37
19.02
30.16
39.56
47.29
53.42
57.99
60.95
62.29
62.13
60.84
58.91
56.85
55.01
53.54
52.37
51.38
50.43
49.41
48.27
46.9
45.2
43.03
40.34
37.17
33.69
30.09
26.55
23.16
19.94
16.95
14.31
12.24
10.97
10.61
11.1
12.24
13.85
15.8
18.1
20.88
24.26
28.49
34.0
41.48
51.79
65.71
83.63
105.3
129.79
155.71
181.52
205.7
226.83
243.4
253.8
256.61
250.99
237.19
216.64
191.63
164.69
137.8
112.0
87.36
63.36
39.43
15.36
-8.57
-31.68
-53.14
-72.15
-88.18
-101.02
-110.85
-118.1
-123.39
-127.27
-130.14
-132.2
-133.53
-134.14
-134.06
-133.35
-132.12
-130.48
-128.62
-126.81
-125.38
-124.71
-124.95
-125.92
-127.0
-127.11
-125.02
-119.74
-110.83
-98.67
-84.35
-69.33
-54.95
-42.11
-31.04
-21.53
-13.24
-5.98
0.17
5.0
8.31
10.15
10.81
10.72
10.28
9.76
9.27
8.86
8.58
8.47
8.49
8.54
8.4
7.82
6.59
4.63
1.98
-1.25
-4.95
-9.05
-13.5
-18.23
-23.1
-28.0
-32.84
-37.65
-42.55
-47.68
-53.09
-58.69
-64.29
-69.64
-74.55
-78.81
-82.07
-83.77
-83.25
-79.87
-73.45
-64.37
-53.57
-42.18
-31.16
-20.98
-11.67
-3.03
4.99
12.21
18.28
22.93
26.21
28.52
30.46
32.58
35.19
38.28
41.59
44.74
47.33
49.11
49.96
49.97
49.37
48.51
47.74
47.34
47.44
47.98
48.73
49.36
49.57
49.23
48.42
47.41
46.53
45.92
45.39
44.39
42.2
38.15
31.93
23.71
14.17
4.36
-4.55
-11.52
-15.89
-17.52
-16.82
-14.58
-11.74
-9.11
-7.18
-6.09
-5.76
-6.01
-6.76
-8.04
-9.98
-12.63
-15.86
-19.35
-22.63
-25.3
-27.18
-28.36
-29.14
-29.86
-30.69
-31.59
-32.39
-32.9
-33.11
-33.25
-33.67
-34.74
-36.58
-39.05
-41.72
-44.12
-45.88
-46.91
-47.47
-48.0
-49.02
-50.92
-53.81
-57.51
-61.57
-65.37
-68.15
-69.18
-67.86
-63.9
-57.41
-48.94
-39.38
-29.69
-20.68
-12.86
-6.42
-1.36
2.38
4.86
6.11
6.24
5.52
4.3
3.0
1.94
1.25
0.84
0.51
0.09
-0.46
-0.99
-1.33
-1.34
-1.13
-1.01
-1.42
-2.67
-4.79
-7.55
-10.48
-13.13
-15.24
-16.76
-17.89
-18.92
-20.19
-22.01
-24.61
-28.01
-31.95
-35.8
-38.67
-39.61
-37.94
-33.47
-26.61
-18.19
-9.13
-0.2
8.22
16.06
23.39
30.21
36.37
41.52
45.37
47.8
48.99
49.38
49.47
49.69
50.27
51.28
52.72
54.68
57.37
60.99
65.71
71.47
77.96
84.73
91.19
96.71
100.67
102.46
101.63
98.04
91.97
84.13
75.41
66.49
57.47
47.68
35.98
21.27
3.14
-17.68
-39.33
-59.21
-74.8
-84.3
-87.09
-83.74
-75.59
-64.35
-51.6
-38.69
-26.57
-15.9
-7.05
-0.2
4.63
7.54
8.65
8.18
6.39
3.73
0.77
-1.9
-3.8
-4.66
-4.54
-3.62
-2.17
-0.43
1.38
2.96
3.92
3.85
2.49
-0.08
-3.47
-7.1
-10.39
-13.1
-15.31
-17.42
-19.99
-23.43
-27.93
-33.3
-38.96
-44.09
-47.77
-49.22
-48.13
-44.73
-39.77
-34.2
-28.89
-24.37
-20.76
-17.94
-15.76
-14.19
-13.32
-13.25
-13.98
-15.31
-16.99
-18.71
-20.3
-21.72
-23.0
-24.24
-25.45
-26.63
-27.7
-28.62
-29.43
-30.25
-31.3
-32.82
-35.01
-37.88
-41.21
-44.59
-47.55
-49.73
-51.06
-51.78
-52.43
-53.6
-55.76
-59.08
-63.37
-68.1
-72.46
-75.53
-76.41
-74.4
-69.22
-61.1
-50.77
-39.22
-27.44
-16.18
-5.87
3.28
11.07
17.29
21.67
24.12
24.77
24.13
22.8
21.38
20.3
19.67
19.42
19.39
19.44
19.51
19.63
19.85
20.18
20.56
20.77
20.48
19.35
17.17
14.01
10.24
6.43
3.15
0.68
-0.96
-2.06
-2.98
-4.01
-5.35
-7.1
-9.34
-12.03
-14.84
-17.1
-17.75
-15.71
-10.31
-1.61
9.48
21.56
33.2
43.37
51.58
57.84
62.36
65.37
67.0
67.34
66.5
64.68
62.08
58.96
55.57
52.16
49.0
46.3
44.14
42.49
41.2
40.04
38.84
37.42
35.58
33.08
29.65
25.04
19.07
11.7
3.0
-6.87
-17.63
-28.93
-40.35
-51.46
-61.82
-70.98
-78.53
-84.13
-87.6
-88.99
-88.5
-86.33
-82.45
-76.56
-68.22
-57.22
-43.94
-29.49
-15.51
-3.63
5.07
10.39
12.99
13.86
13.88
13.41
12.46
10.93
9.1
7.69
7.54
9.14
12.2
15.65
18.18
18.93
18.0
16.37
15.28
15.51
16.94
18.64
19.44
18.63
16.44
13.94
12.62
13.73
17.98
25.3
34.87
45.14
53.99
58.96
57.89
49.52
34.01
13.06
-10.58
-33.99
-54.86
-71.92
-84.8
-93.56
-98.3
-99.01
-95.77
-89.02
-79.62
-68.64
-57.1
-45.72
-34.95
-25.0
-16.12
-8.67
-3.05
0.41
1.69
1.15
-0.45
-2.13
-2.86
-1.87
1.2
6.17
12.42
19.03
25.03
29.65
32.47
33.44
32.79
30.91
28.14
24.72
20.86
16.77
12.79
9.33
6.75
5.13
4.15
3.19
1.57
-1.07
-4.54
-8.16
-10.97
-12.21
-11.71
-9.9
-7.7
-6.01
-5.26
-5.15
-4.76
-2.86
1.58
9.06
19.39
31.81
45.26
58.63
70.96
81.57
90.04
96.26
100.37
102.71
103.72
103.78
103.13
101.87
100.0
97.52
94.51
91.13
87.62
84.17
80.92
77.89
74.96
71.96
68.71
65.11
61.16
56.92
52.5
47.98
43.31
38.36
32.95
26.89
20.12
12.67
4.71
-3.51
-11.71
-19.64
-27.18
-34.27
-40.99
-47.41
-53.58
-59.45
-64.82
-69.25
-72.2
-73.06
-71.42
-67.18
-60.72
-52.83
-44.53
-36.78
-30.2
-25.04
-21.13
-18.21
-16.06
-14.6
-13.83
-13.69
-13.97
-14.36
-14.53
-14.29
-13.65
-12.72
-11.68
-10.67
-9.72
-8.86
-8.12
-7.6
-7.38
-7.47
-7.78
-8.2
-8.67
-9.24
-10.08
-11.32
-13.05
-15.14
-17.41
-19.6
-21.6
-23.41
-25.19
-27.15
-29.54
-32.59
-36.46
-41.11
-46.19
-51.01
-54.53
-55.63
-53.52
-47.97
-39.54
-29.37
-18.85
-9.18
-1.02
5.45
10.5
14.42
17.41
19.43
20.36
20.19
19.16
17.71
16.44
15.79
15.9
16.64
17.59
18.39
18.78
18.74
18.37
17.82
17.15
16.32
15.23
13.77
11.86
9.5
6.73
3.59
0.19
-3.36
-6.94
-10.46
-13.97
-17.63
-21.69
-26.36
-31.74
-37.65
-43.68
-49.12
-53.12
-54.84
-53.69
-49.48
-42.54
-33.64
-23.84
-14.19
-5.5
1.76
7.47
11.73
14.68
16.48
17.24
17.16
16.55
15.81
15.31
15.27
15.68
16.3
16.85
17.07
16.91
16.49
16.01
15.63
15.35
14.99
14.3
12.99
10.93
8.15
4.84
1.33
-2.07
-5.19
-7.98
-10.62
-13.4
-16.65
-20.64
-25.44
-30.88
-36.38
-41.06
-43.89
-44.01
-41.0
-35.08
-27.02
-17.9
-8.74
-0.3
7.02
13.05
17.7
20.88
22.54
22.74
21.78
20.16
18.43
17.07
16.28
16.04
16.14
16.33
16.41
16.3
16.03
15.67
15.26
14.76
14.07
12.98
11.34
9.05
6.16
2.86
-0.63
-4.06
-7.31
-10.39
-13.48
-16.82
-20.67
-25.18
-30.27
-35.63
-40.62
-44.42
-46.16
-45.16
-41.21
-34.59
-26.07
-16.66
-7.35
1.09
8.21
13.86
17.99
20.66
21.91
21.9
20.97
19.6
18.37
17.7
17.74
18.32
19.04
19.51
19.47
18.91
18.0
16.94
15.81
14.49
12.76
10.38
7.3
3.68
-0.11
-3.69
-6.84
-9.57
-12.15
-15.02
-18.6
-23.13
-28.55
-34.41
-39.99
-44.31
-46.43
-45.68
-41.87
-35.38
-27.06
-17.95
-8.97
-0.75
6.43
12.51
17.43
21.06
23.22
23.83
23.12
21.6
19.97
18.83
18.45
18.73
19.24
19.56
19.41
18.83
18.02
17.23
16.54
15.82
14.79
13.1
10.59
7.24
3.31
-0.87
-4.91
-8.59
-11.86
-14.85
-17.85
-21.17
-25.11
-29.85
-35.35
-41.28
-46.97
-51.46
-53.68
-52.83
-48.59
-41.34
-32.02
-21.82
-11.8
-2.63
5.45
12.46
18.47
23.48
27.36
30.05
31.56
32.1
31.97
31.49
30.93
30.48
30.26
30.32
30.61
31.03
31.41
31.58
31.42
30.87
29.89
28.46
26.56
24.2
21.45
18.4
15.17
11.8
8.3
4.65
0.87
-2.92
-6.63
-10.2
-13.72
-17.43
-21.64
-26.65
-32.58
-39.21
-45.98
-51.95
-56.0
-57.09
-54.61
-48.61
-39.82
-29.45
-18.79
-8.81
-0.02
7.53
14.0
19.55
24.18
27.75
30.14
31.38
31.71
31.52
31.22
31.12
31.35
31.93
32.82
33.97
35.28
36.6
37.75
38.53
38.82
38.57
37.87
36.8
35.34
33.49
31.19
28.48
25.55
22.65
19.99
17.59
15.27
12.72
9.71
6.18
2.32
-1.61
-5.36
-8.86
-12.21
-15.6
-19.16
-22.97
-27.11
-31.68
-36.83
-42.56
-48.6
-54.24
-58.36
-59.88
-58.04
-52.77
-44.72
-35.0
-24.79
-14.98
-6.02
1.99
9.13
15.45
20.88
25.29
28.64
31.0
32.59
33.76
34.82
35.98
37.3
38.73
40.12
41.36
42.35
43.09
43.53
43.6
43.15
42.0
40.02
37.2
33.66
29.63
25.37
21.06
16.84
12.79
8.94
5.31
1.94
-1.15
-3.92
-6.4
-8.65
-10.79
-12.96
-15.28
-17.79
-20.47
-23.18
-25.86
-28.47
-31.11
-33.97
-37.24
-41.1
-45.58
-50.49
-55.34
-59.36
-61.59
-61.11
-57.39
-50.48
-41.11
-30.49
-19.91
-10.38
-2.4
3.99
9.04
13.0
15.98
17.99
19.08
19.42
19.39
19.41
19.83
20.73
21.97
23.23
24.22
24.8
25.03
25.07
25.12
25.27
25.45
25.46
25.05
24.01
22.3
20.1
17.75
15.63
13.96
12.69
11.53
10.08
8.01
5.27
2.02
-1.38
-4.64
-7.63
-10.38
-13.11
-16.03
-19.35
-23.2
-27.67
-32.72
-38.11
-43.3
-47.46
-49.65
-49.09
-45.43
-38.96
-30.49
-21.15
-12.03
-3.88
2.98
8.56
13.03
16.5
19.03
20.59
21.23
21.13
20.6
20.0
19.6
19.54
19.8
20.25
20.74
21.17
21.52
21.75
21.81
21.64
21.14
20.27
19.03
17.52
15.85
14.13
12.39
10.6
8.74
6.77
4.75
2.71
0.66
-1.43
-3.66
-6.11
-8.78
-11.59
-14.37
-16.91
-19.13
-21.06
-22.93
-25.14
-28.07
-31.98
-36.85
-42.24
-47.35
-51.14
-52.62
-51.14
-46.58
-39.44
-30.62
-21.21
-12.13
-3.99
3.07
9.17
14.58
19.51
24.02
27.98
31.25
33.69
35.27
36.05
36.22
35.97
35.48
34.9
34.29
33.66
33.0
32.26
31.38
30.32
29.07
27.62
25.95
24.0
21.75
19.22
16.5
13.74
11.1
8.68
6.45
4.28
2.03
-0.38
-2.91
-5.4
-7.7
-9.68
-11.36
-12.82
-14.14
-15.43
-16.77
-18.35
-20.49
-23.58
-27.91
-33.54
-40.03
-46.53
-51.89
-55.01
-55.21
-52.4
-47.1
-40.17
-32.56
-25.04
-18.09
-11.9
-6.54
-2.01
1.72
4.68
6.94
8.64
9.92
10.95
11.85
12.7
13.54
14.39
15.23
15.99
16.64
17.17
17.56
17.85
18.03
18.05
17.81
17.2
16.14
14.7
13.01
11.31
9.75
8.45
7.36
6.37
5.28
3.91
2.08
-0.36
-3.47
-7.12
-11.07
-14.98
-18.61
-21.94
-25.22
-28.84
-33.2
-38.52
-44.71
-51.35
-57.73
-62.9
-65.87
-65.81
-62.35
-55.66
-46.52
-36.03
-25.32
-15.29
-6.4
1.19
7.56
12.79
16.92
19.92
21.84
22.83
23.19
23.31
23.51
23.98
24.74
25.64
26.46
27.11
27.58
27.96
28.33
28.63
28.68
28.2
27.02
25.12
22.66
19.9
17.11
14.47
12.03
9.83
7.88
6.19
4.74
3.45
2.19
0.8
-0.82
-2.68
-4.69
-6.66
-8.48
-10.1
-11.65
-13.42
-15.76
-19.05
-23.45
-28.78
-34.38
-39.18
-41.83
-41.19
-36.68
-28.49
-17.56
-5.26
7.03
18.33
28.16
36.54
43.66
49.72
54.82
58.91
61.99
64.07
65.28
65.79
65.74
65.2
64.21
62.82
61.1
59.19
57.24
55.29
53.3
51.1
48.49
45.29
41.4
36.81
31.6
25.99
20.26
14.73
9.67
5.2
1.27
-2.28
-5.68
-9.06
-12.46
-15.84
-19.08
-22.1
-24.82
-27.24
-29.37
-31.29
-33.2
-35.4
-38.24
-42.02
-46.82
-52.35
-57.87
-62.38
-64.78
-64.32
-60.77
-54.6
-46.79
-38.54
-30.84
-24.33
-19.24
-15.51
-12.98
-11.46
-10.77
-10.63
-10.67
-10.52
-9.91
-8.81
-7.4
-5.94
-4.64
-3.55
-2.54
-1.49
-0.36
0.73
1.56
1.93
1.75
1.14
0.38
-0.17
-0.21
0.41
1.63
3.18
4.72
5.97
6.78
7.17
7.21
6.94
6.32
5.22
3.52
1.16
-1.84
-5.49
-9.84
-14.95
-20.72
-26.67
-31.85
-34.96
-34.7
-30.24
-21.52
-9.24
5.39
21.01
36.46
50.73
62.83
71.75
76.57
76.86
72.94
65.93
57.4
48.82
41.06
34.38
28.6
23.44
18.78
14.54
10.41
5.81
0.02
-7.32
-15.72
-23.7
-29.2
-30.3
-26.19
-17.56
-6.51
4.21
12.33
16.85
18.36
18.6
19.58
22.71
28.2
35.1
41.56
45.4
44.61
37.84
24.93
7.32
-12.0
-29.02
-40.09
-43.32
-39.53
-32.13
-25.8
-24.67
-30.7
-43.09
-58.76
-73.79
-84.75
-89.74
-88.65
-82.78
-74.16
-64.7
-55.7
-47.57
-40.04
-32.62
-25.02
-17.37
-10.11
-3.68
1.72
6.15
9.8
12.64
14.37
14.57
12.91
9.45
4.49
-1.5
-8.2
-15.51
-23.38
-31.64
-39.93
-47.77
-54.66
-60.26
-64.31
-66.6
-67.02
-65.71
-63.26
-60.71
-59.18
-59.32
-60.74
-62.01
-61.19
-56.63
-47.81
-35.51
-21.39
-7.33
5.36
16.21
25.44
33.6
41.11
48.16
54.64
60.37
65.19
69.08
72.09
74.38
76.09
77.41
78.5
79.57
80.76
82.23
83.99
85.9
87.59
88.55
88.3
86.66
83.85
80.5
77.34
74.85
73.0
71.12
68.19
63.11
55.13
43.96
29.83
13.34
-4.7
-23.43
-42.09
-60.16
-77.4
-93.79
-109.32
-123.68
-136.08
-145.3
-149.98
-149.18
-142.77
-131.57
-117.09
-101.06
-84.89
-69.44
-55.07
-41.93
-30.16
-20.06
-11.84
-5.53
-0.78
2.91
6.08
8.97
11.55
13.63
15.09
15.99
16.61
17.2
17.87
18.45
18.65
18.18
16.93
15.02
12.75
10.44
8.28
6.3
4.36
2.25
-0.19
-3.0
-6.11
-9.34
-12.54
-15.64
-18.64
-21.67
-24.87
-28.46
-32.71
-37.87
-44.04
-50.97
-57.88
-63.55
-66.61
-65.98
-61.28
-52.98
-42.25
-30.55
-19.12
-8.76
0.28
8.12
15.03
21.16
26.55
31.13
34.86
37.77
40.01
41.77
43.21
44.46
45.61
46.75
47.98
49.35
50.83
52.22
53.22
53.55
53.08
51.88
50.23
48.47
46.86
45.46
44.1
42.55
40.6
38.21
35.53
32.79
30.2
27.79
25.37
22.59
19.13
14.73
9.37
3.28
-3.06
-8.85
-13.21
-15.35
-14.86
-11.87
-7.13
-1.74
3.24
7.09
9.67
11.29
12.45
13.6
14.92
16.38
17.88
19.38
20.96
22.82
25.17
28.1
31.55
35.25
38.82
41.82
43.87
44.71
44.2
42.29
39.06
34.68
29.41
23.59
17.57
11.69
6.14
1.02
-3.69
-8.07
-12.18
-16.04
-19.7
-23.22
-26.76
-30.53
-34.79
-39.69
-45.21
-51.03
-56.53
-60.85
-63.09
-62.56
-59.05
-52.93
-45.07
-36.52
-28.16
-20.53
-13.69
-7.49
-1.74
3.53
8.14
11.89
14.68
16.69
18.24
19.68
21.23
22.93
24.7
26.39
27.96
29.36
30.59
31.57
32.12
32.05
31.25
29.73
27.65
25.29
22.87
20.52
18.16
15.61
12.59
8.97
4.77
0.23
-4.27
-8.38
-11.94
-15.04
-18.07
-21.61
-26.23
-32.24
-39.55
-47.47
-54.85
-60.3
-62.59
-61.0
-55.56
-47.01
-36.58
-25.6
-15.11
-5.68
2.57
9.83
16.32
22.14
27.16
31.2
34.09
35.87
36.76
37.11
37.25
37.43
37.75
38.2
38.72
39.23
39.67
39.99
40.11
39.9
39.19
37.79
35.64
32.83
29.64
26.44
23.59
21.19
19.09
16.9
14.22
10.8
6.69
2.21
-2.24
-6.31
-9.91
-13.21
-16.53
-20.31
-24.88
-30.43
-36.9
-43.89
-50.62
-56.03
-59.01
-58.69
-54.74
-47.55
-38.11
-27.74
-17.6
-8.47
-0.57
6.26
12.33
17.88
22.94
27.39
31.03
33.76
35.65
36.92
37.85
38.7
39.56
40.4
41.07
41.45
41.53
41.44
41.33
41.24
41.08
40.59
39.47
37.54
34.85
31.59
28.08
24.59
21.26
18.13
15.15
12.19
9.17
6.0
2.64
-0.86
-4.39
-7.8
-10.97
-13.91
-16.81
-19.92
-23.51
-27.79
-32.82
-38.52
-44.65
-50.69
-55.86
-59.19
-59.7
-56.79
-50.46
-41.41
-30.85
-20.1
-10.22
-1.76
5.26
11.08
16.01
20.19
23.61
26.2
27.93
28.93
29.44
29.8
30.25
30.92
31.73
32.47
32.93
32.99
32.64
32.03
31.33
30.62
29.89
28.98
27.68
25.85
23.5
20.81
18.06
15.54
13.37
11.47
9.6
7.52
5.05
2.19
-0.9
-4.04
-7.11
-10.11
-13.12
-16.25
-19.57
-23.08
-26.78
-30.73
-35.06
-39.86
-44.96
-49.79
-53.43
-54.82
-53.12
-48.08
-40.18
-30.51
-20.42
-11.0
-2.9
3.77
9.2
13.6
17.1
19.67
21.28
22.04
22.2
22.11
22.06
22.22
22.57
22.95
23.26
23.43
23.51
23.6
23.74
23.89
23.9
23.55
22.66
21.11
18.94
16.32
13.49
10.7
8.11
5.75
3.49
1.12
-1.58
-4.69
-8.13
-11.64
-14.87
-17.58
-19.81
-21.79
-23.99
-26.84
-30.65
-35.43
-40.86
-46.24
-50.6
-52.9
-52.31
-48.52
-41.89
-33.35
-24.12
-15.28
-7.51
-1.01
4.31
8.63
12.06
14.62
16.34
17.36
17.92
18.26
18.58
18.94
19.31
19.62
19.8
19.84
19.81
19.81
19.95
20.23
20.53
20.6
20.12
18.87
16.82
14.11
11.08
8.1
5.44
3.2
1.28
-0.59
-2.73
-5.4
-8.66
-12.36
-16.15
-19.67
-22.67
-25.17
-27.46
-30.0
-33.25
-37.5
-42.72
-48.5
-54.04
-58.36
-60.39
-59.39
-55.15
-48.09
-39.24
-29.81
-20.9
-13.2
-6.86
-1.68
2.62
6.23
9.16
11.31
12.68
13.39
13.68
13.79
13.89
13.99
14.0
13.87
13.63
13.41
13.4
13.71
14.33
15.05
15.55
15.47
14.62
13.01
10.89
8.66
6.68
5.12
3.92
2.79
1.4
-0.5
-2.95
-5.79
-8.75
-11.57
-14.13
-16.46
-18.73
-21.23
-24.31
-28.28
-33.27
-39.11
-45.23
-50.65
-54.22
-54.96
-52.38
-46.69
-38.68
-29.48
-20.19
-11.55
-3.9
2.75
8.52
13.51
17.75
21.21
23.81
25.58
26.62
27.09
27.17
26.98
26.58
26.01
25.32
24.62
24.07
23.82
23.9
24.19
24.42
24.26
23.5
22.07
20.13
17.9
15.67
13.57
11.58
9.52
7.15
4.34
1.07
-2.43
-5.85
-8.91
-11.48
-13.7
-15.91
-18.54
-21.94
-26.29
-31.52
-37.23
-42.78
-47.29
-49.82
-49.65
-46.45
-40.5
-32.58
-23.75
-15.01
-7.06
-0.18
5.69
10.7
15.01
18.61
21.44
23.43
24.64
25.23
25.42
25.41
25.32
25.17
24.92
24.58
24.24
23.99
23.97
24.16
24.41
24.4
23.84
22.5
20.44
17.89
15.22
12.73
10.57
8.63
6.7
4.53
2.03
-0.74
-3.62
-6.42
-9.07
-11.6
-14.19
-17.01
-20.26
-24.02
-28.3
-32.97
-37.7
-41.9
-44.8
-45.66
-43.95
-39.59
-32.97
-24.94
-16.43
-8.3
-1.07
5.02
10.0
13.94
16.92
18.97
20.15
20.63
20.62
20.41
20.24
20.22
20.39
20.68
20.99
21.24
21.38
21.38
21.19
20.77
20.05
18.95
17.42
15.5
13.3
11.01
8.77
6.63
4.48
2.18
-0.41
-3.27
-6.22
-9.06
-11.68
-14.18
-16.82
-19.94
-23.82
-28.55
-33.92
-39.4
-44.17
-47.33
-48.06
-45.91
-40.94
-33.75
-25.28
-16.56
-8.38
-1.16
5.0
10.27
14.82
18.73
21.96
24.43
26.07
26.94
27.21
27.13
26.94
26.77
26.7
26.72
26.8
26.94
27.11
27.22
27.12
26.61
25.48
23.66
21.2
18.33
15.36
12.6
10.24
8.32
6.65
4.92
2.81
0.12
-3.16
-6.85
-10.63
-14.18
-17.3
-19.95
-22.32
-24.75
-27.67
-31.47
-36.35
-42.16
-48.32
-53.84
-57.56
-58.5
-56.14
-50.63
-42.73
-33.51
-24.06
-15.13
-7.08
0.06
6.43
12.13
17.16
21.42
24.79
27.23
28.8
29.68
30.1
30.29
30.45
30.69
31.03
31.42
31.78
32.08
32.26
32.29
32.09
31.55
30.57
29.08
27.15
24.91
22.53
20.17
17.88
15.67
13.46
11.15
8.67
5.94
2.94
-0.31
-3.74
-7.21
-10.59
-13.82
-16.9
-19.91
-22.98
-26.26
-29.92
-34.11
-38.92
-44.25
-49.69
-54.49
-57.68
-58.34
-55.94
-50.55
-42.81
-33.72
-24.31
-15.38
-7.33
-0.28
5.85
11.14
15.65
19.37
22.33
24.55
26.11
27.07
27.49
27.47
27.14
26.72
26.44
26.52
27.08
28.05
29.23
30.32
31.05
31.22
30.76
29.67
28.07
26.12
23.99
21.84
19.78
17.87
16.06
14.28
12.47
10.58
8.63
6.61
4.5
2.21
-0.28
-3.0
-5.91
-8.92
-11.95
-14.96
-17.96
-21.0
-24.23
-27.82
-31.97
-36.78
-42.01
-47.02
-50.84
-52.4
-50.94
-46.29
-38.97
-29.97
-20.4
-11.21
-2.96
4.17
10.17
15.12
19.1
22.16
24.43
26.02
27.1
27.79
28.18
28.34
28.36
28.32
28.33
28.48
28.77
29.13
29.44
29.5
29.12
28.21
26.77
24.91
22.79
20.57
18.33
16.07
13.72
11.23
8.58
5.88
3.26
0.84
-1.34
-3.35
-5.36
-7.54
-10.0
-12.76
-15.68
-18.56
-21.22
-23.59
-25.78
-28.05
-30.74
-34.14
-38.4
-43.41
-48.77
-53.76
-57.49
-59.04
-57.73
-53.39
-46.39
-37.64
-28.25
-19.2
-11.07
-4.03
2.03
7.29
11.82
15.58
18.46
20.42
21.54
22.0
22.1
22.12
22.26
22.66
23.28
24.02
24.73
25.29
25.63
25.78
25.8
25.66
25.28
24.53
23.33
21.68
19.75
17.75
15.87
14.18
12.59
10.9
8.93
6.62
4.02
1.34
-1.29
-3.74
-6.07
-8.35
-10.7
-13.18
-15.81
-18.62
-21.67
-25.05
-28.85
-33.08
-37.51
-41.62
-44.69
-45.9
-44.68
-40.87
-34.87
-27.41
-19.43
-11.7
-4.68
1.46
6.74
11.16
14.62
16.99
18.21
18.42
17.95
17.27
16.76
16.61
16.77
17.04
17.2
17.15
16.93
16.7
16.57
16.51
16.35
15.85
14.85
13.34
11.44
9.4
7.37
5.45
3.57
1.58
-0.7
-3.39
-6.48
-9.82
-13.17
-16.32
-19.15
-21.72
-24.21
-26.9
-30.03
-33.81
-38.26
-43.19
-48.09
-52.14
-54.42
-54.09
-50.76
-44.69
-36.66
-27.75
-18.95
-10.91
-3.85
2.22
7.38
11.65
14.99
17.37
18.86
19.6
19.78
19.6
19.23
18.8
18.44
18.21
18.11
18.08
18.03
17.9
17.71
17.49
17.26
16.93
16.29
15.14
13.38
11.1
8.57
6.14
4.01
2.18
0.42
-1.61
-4.16
-7.28
-10.79
-14.35
-17.62
-20.41
-22.79
-25.07
-27.67
-31.01
-35.3
-40.48
-46.15
-51.63
-56.05
-58.49
-58.19
-54.77
-48.36
-39.62
-29.59
-19.37
-9.89
-1.64
5.26
10.95
15.6
19.35
22.21
24.21
25.44
26.08
26.36
26.45
26.47
26.45
26.4
26.31
26.24
26.19
26.21
26.28
26.36
26.33
26.04
25.32
24.02
22.12
19.74
17.1
14.47
12.03
9.75
7.48
4.92
1.87
-1.71
-5.65
-9.62
-13.29
-16.46
-19.18
-21.73
-24.55
-28.09
-32.65
-38.25
-44.44
-50.4
-54.98
-57.07
-55.9
-51.32
-43.86
-34.56
-24.6
-14.96
-6.21
1.47
8.14
13.91
18.77
22.63
25.45
27.29
28.36
28.96
29.4
29.84
30.33
30.8
31.16
31.41
31.59
31.79
32.04
32.24
32.2
31.69
30.54
28.7
26.3
23.56
20.78
18.18
15.88
13.77
11.59
9.04
5.92
2.27
-1.62
-5.34
-8.59
-11.31
-13.76
-16.38
-19.66
-23.92
-29.26
-35.42
-41.83
-47.62
-51.78
-53.36
-51.75
-46.89
-39.34
-30.12
-20.36
-11.02
-2.62
4.7
11.04
16.46
20.9
24.16
26.14
26.92
26.85
26.44
26.18
26.32
26.88
27.62
28.33
28.82
29.13
29.35
29.58
29.81
29.84
29.42
28.31
26.45
23.94
21.07
18.16
15.42
12.87
10.36
7.64
4.54
1.06
-2.65
-6.28
-9.61
-12.57
-15.23
-17.84
-20.66
-23.95
-27.91
-32.64
-38.1
-43.94
-49.49
-53.74
-55.63
-54.36
-49.75
-42.25
-32.85
-22.71
-12.82
-3.85
3.96
10.56
15.99
20.31
23.57
25.84
27.3
28.18
28.69
29.07
29.43
29.81
30.17
30.49
30.76
31.03
31.35
31.7
31.96
31.9
31.28
29.94
27.9
25.37
22.61
19.87
17.24
14.76
12.35
9.89
7.33
4.58
1.61
-1.53
-4.75
-7.96
-11.01
-13.88
-16.69
-19.66
-23.13
-27.34
-32.34
-37.81
-43.01
-46.92
-48.53
-47.17
-42.73
-35.73
-27.13
-17.97
-9.13
-1.1
5.91
11.88
16.76
20.46
22.89
24.12
24.37
24.03
23.5
23.08
22.89
22.92
23.07
23.29
23.55
23.87
24.19
24.4
24.32
23.75
22.58
20.86
18.75
16.48
14.28
12.24
10.33
8.37
6.14
3.43
0.18
-3.51
-7.45
-11.39
-15.19
-18.78
-22.25
-25.79
-29.64
-33.97
-38.74
-43.62
-47.93
-50.75
-51.17
-48.62
-43.1
-35.18
-25.87
-16.26
-7.2
0.87
7.85
13.83
18.87
22.92
25.86
27.66
28.42
28.47
28.26
28.2
28.54
29.23
30.07
30.76
31.07
30.95
30.52
29.94
29.31
28.58
27.54
25.92
23.58
20.55
17.1
13.65
10.57
8.05
5.94
3.91
1.52
-1.51
-5.16
-9.17
-13.11
-16.63
-19.63
-22.28
-24.91
-27.95
-31.75
-36.51
-42.18
-48.42
-54.52
-59.49
-62.25
-61.91
-58.11
-51.17
-42.0
-31.82
-21.76
-12.56
-4.46
2.64
8.96
14.62
19.54
23.53
26.43
28.27
29.31
29.92
30.48
31.23
32.14
33.1
33.91
34.46
34.77
34.98
35.21
35.49
35.67
35.47
34.59
32.82
30.17
26.92
23.45
20.19
17.41
15.1
13.05
10.92
8.41
5.38
1.88
-1.89
-5.65
-9.2
-12.48
-15.53
-18.54
-21.74
-25.34
-29.52
-34.4
-39.95
-45.89
-51.58
-56.05
-58.22
-57.24
-52.8
-45.36
-35.94
-25.85
-16.18
-7.61
-0.28
6.0
11.51
16.39
20.65
24.16
26.84
28.71
29.9
30.6
31.02
31.31
31.55
31.79
32.04
32.32
32.65
32.99
33.22
33.2
32.77
31.85
30.43
28.59
26.4
23.96
21.32
18.54
15.71
12.94
10.32
7.87
5.51
3.09
0.45
-2.48
-5.68
-9.0
-12.31
-15.52
-18.6
-21.61
-24.65
-27.88
-31.52
-35.79
-40.84
-46.54
-52.45
-57.68
-61.14
-61.81
-59.09
-53.05
-44.42
-34.39
-24.2
-14.79
-6.63
0.25
6.08
11.09
15.4
18.99
21.82
23.92
25.39
26.42
27.2
27.84
28.35
28.73
29.0
29.2
29.43
29.78
30.24
30.72
31.0
30.86
30.12
28.73
26.8
24.51
22.11
19.75
17.51
15.39
13.33
11.28
9.2
7.02
4.67
2.07
-0.84
-4.05
-7.43
-10.74
-13.76
-16.33
-18.52
-20.61
-22.98
-26.0
-29.9
-34.69
-40.14
-45.77
-50.85
-54.46
-55.71
-53.93
-49.02
-41.45
-32.2
-22.49
-13.37
-5.47
1.08
6.48
11.01
14.91
18.2
20.85
22.79
24.07
24.86
25.35
25.73
26.1
26.48
26.85
27.16
27.42
27.62
27.73
27.66
27.33
26.64
25.57
24.14
22.42
20.49
18.45
16.38
14.37
12.47
10.68
8.93
7.1
5.12
2.95
0.61
-1.86
-4.43
-7.05
-9.72
-12.46
-15.29
-18.29
-21.6
-25.36
-29.68
-34.5
-39.54
-44.18
-47.59
-48.93
-47.57
-43.39
-36.83
-28.78
-20.28
-12.23
-5.14
0.84
5.79
9.81
12.95
15.15
16.39
16.81
16.7
16.47
16.45
16.82
17.49
18.25
18.83
19.1
19.09
18.98
18.96
19.12
19.36
19.43
19.04
17.98
16.22
13.93
11.37
8.86
6.62
4.72
3.05
1.4
-0.5
-2.85
-5.71
-8.94
-12.27
-15.38
-18.07
-20.33
-22.38
-24.6
-27.39
-31.08
-35.77
-41.25
-46.92
-51.88
-55.03
-55.43
-52.58
-46.65
-38.44
-29.12
-19.85
-11.51
-4.46
1.35
6.14
10.17
13.54
16.25
18.27
19.67
20.56
21.16
21.66
22.14
22.6
22.97
23.15
23.11
22.89
22.61
22.4
22.36
22.45
22.49
22.21
21.35
19.75
17.43
14.66
11.82
9.21
7.0
5.1
3.26
1.2
-1.3
-4.27
-7.59
-11.03
-14.35
-17.37
-20.04
-22.45
-24.84
-27.52
-30.82
-34.96
-39.9
-45.29
-50.37
-54.12
-55.53
-53.93
-49.23
-42.0
-33.29
-24.24
-15.81
-8.49
-2.32
2.88
7.38
11.27
14.5
16.94
18.5
19.28
19.51
19.56
19.72
20.15
20.84
21.61
22.29
22.77
23.04
23.22
23.4
23.58
23.6
23.26
22.34
20.73
18.49
15.88
13.27
10.99
9.26
8.0
6.93
5.64
3.77
1.14
-2.19
-5.95
-9.8
-13.4
-16.6
-19.41
-21.98
-24.65
-27.77
-31.69
-36.55
-42.18
-47.9
-52.66
-55.27
-54.77
-50.85
-43.96
-35.17
-25.81
-16.98
-9.28
-2.76
2.83
7.77
12.13
15.82
18.63
20.52
21.62
22.24
22.75
23.37
24.17
25.01
25.67
25.98
25.89
25.53
25.12
24.89
24.89
24.98
24.84
24.13
22.65
20.43
17.75
14.98
12.45
10.25
8.3
6.34
4.13
1.53
-1.44
-4.63
-7.81
-10.79
-13.47
-15.9
-18.29
-20.95
-24.22
-28.34
-33.33
-38.93
-44.53
-49.3
-52.26
-52.61
-49.93
-44.33
-36.49
-27.45
-18.32
-9.94
-2.72
3.35
8.46
12.8
16.35
19.02
20.73
21.56
21.79
21.81
21.93
22.26
22.71
23.13
23.38
23.48
23.58
23.81
24.16
24.44
24.32
23.52
21.94
19.72
17.2
14.74
12.54
10.59
8.68
6.53
3.93
0.88
-2.43
-5.73
-8.7
-11.18
-13.19
-14.97
-16.89
-19.44
-23.0
-27.71
-33.32
-39.1
-44.0
-46.89
-46.96
-43.94
-38.25
-30.8
-22.65
-14.75
-7.64
-1.53
3.65
7.99
11.51
14.17
15.89
16.7
16.73
16.23
15.51
14.88
14.64
14.98
16.01
17.7
19.91
22.37
24.76
26.72
27.93
28.14
27.31
25.54
23.09
20.31
17.5
14.81
12.25
9.68
6.94
3.96
0.76
-2.57
-5.91
-9.23
-12.63
-16.29
-20.47
-25.39
-31.04
-37.16
-43.12
-48.0
-50.78
-50.71
-47.54
-41.62
-33.82
-25.21
-16.73
-8.96
-2.06
4.04
9.45
14.2
18.18
21.26
23.36
24.56
25.08
25.22
25.26
25.38
25.64
26.02
26.44
26.87
27.29
27.68
27.99
28.05
27.68
26.68
24.98
22.65
19.93
17.16
14.62
12.43
10.48
8.47
6.06
3.02
-0.6
-4.56
-8.5
-12.12
-15.36
-18.38
-21.52
-25.14
-29.53
-34.75
-40.54
-46.21
-50.8
-53.18
-52.45
-48.26
-40.96
-31.51
-21.16
-11.06
-1.94
5.97
12.81
18.88
24.39
29.35
33.6
36.83
38.76
39.25
38.36
36.39
33.73
30.8
27.89
25.21
22.84
20.9
19.47
18.59
18.16
17.89
17.42
16.45
14.88
12.9
10.86
9.09
7.75
6.72
5.71
4.34
2.32
-0.43
-3.77
-7.39
-10.9
-14.03
-16.71
-19.11
-21.65
-24.79
-28.9
-34.14
-40.26
-46.63
-52.29
-56.11
-57.1
-54.71
-49.05
-40.88
-31.38
-21.76
-12.89
-5.11
1.67
7.8
13.5
18.8
23.46
27.2
29.86
31.49
32.4
33.0
33.61
34.37
35.19
35.82
36.08
35.95
35.57
35.19
34.95
34.78
34.44
33.6
32.05
29.79
27.04
24.11
21.27
18.67
16.3
14.05
11.74
9.2
6.28
2.96
-0.71
-4.49
-8.14
-11.37
-14.09
-16.41
-18.67
-21.35
-24.89
-29.56
-35.3
-41.65
-47.81
-52.74
-55.41
-55.08
-51.55
-45.24
-37.01
-27.97
-19.09
-10.96
-3.79
2.49
8.05
12.93
17.06
20.32
22.66
24.21
25.22
25.99
26.73
27.51
28.25
28.86
29.28
29.52
29.67
29.79
29.84
29.73
29.33
28.48
27.14
25.35
23.23
20.96
18.67
16.46
14.3
12.08
9.67
7.0
4.07
0.98
-2.1
-5.03
-7.76
-10.28
-12.7
-15.2
-18.0
-21.36
-25.47
-30.35
-35.66
-40.72
-44.62
-46.4
-45.4
-41.5
-35.13
-27.19
-18.72
-10.62
-3.42
2.74
7.92
12.28
15.88
18.68
20.62
21.71
22.09
22.03
21.84
21.76
21.88
22.16
22.46
22.66
22.66
22.41
21.92
21.16
20.09
18.67
16.9
14.86
12.73
10.68
8.82
7.12
5.43
3.53
1.26
-1.41
-4.35
-7.35
-10.2
-12.81
-15.23
-17.62
-20.26
-23.39
-27.2
-31.68
-36.5
-40.98
-44.18
-45.17
-43.29
-38.53
-31.46
-23.13
-14.63
-6.82
-0.06
5.64
10.46
14.51
17.75
20.05
21.34
21.76
21.64
21.4
21.37
21.71
22.33
23.0
23.5
23.72
23.66
23.43
23.12
22.72
22.07
21.04
19.47
17.37
14.83
12.01
9.08
6.12
3.21
0.32
-2.48
-5.15
-7.6
-9.75
-11.6
-13.19
-14.66
-16.19
-18.01
-20.39
-23.55
-27.55
-32.21
-37.05
-41.3
-44.02
-44.39
-41.95
-36.79
-29.52
-21.12
-12.65
-4.94
1.53
6.68
10.64
13.6
15.74
17.13
17.85
18.03
17.85
17.54
17.28
17.21
17.31
17.54
17.79
18.01
18.14
18.2
18.18
18.01
17.6
16.8
15.53
13.75
11.53
8.92
6.02
2.85
-0.54
-4.12
-7.8
-11.46
-15.01
-18.38
-21.63
-24.87
-28.3
-32.14
-36.56
-41.57
-46.91
-51.95
-55.76
-57.35
-56.0
-51.56
-44.54
-35.95
-26.88
-18.27
-10.57
-3.83
2.1
7.36
11.97
15.81
18.76
20.79
21.99
22.59
22.81
22.88
22.96
23.11
23.3
23.47
23.48
23.23
22.66
21.8
20.71
19.46
18.06
16.44
14.51
12.21
9.54
6.58
3.41
0.14
-3.16
-6.39
-9.45
-12.31
-14.99
-17.66
-20.55
-23.93
-28.03
-32.95
-38.54
-44.37
-49.66
-53.39
-54.56
-52.48
-47.14
-39.27
-30.09
-20.92
-12.66
-5.62
0.4
5.81
10.85
15.49
19.48
22.59
24.75
26.1
26.92
27.45
27.83
28.13
28.4
28.71
29.15
29.7
30.22
30.45
30.08
28.92
26.92
24.27
21.25
18.13
15.08
12.08
9.03
5.81
2.37
-1.2
-4.76
-8.15
-11.34
-14.38
-17.44
-20.72
-24.42
-28.7
-33.59
-39.0
-44.55
-49.55
-53.12
-54.34
-52.55
-47.64
-40.15
-31.1
-21.72
-12.98
-5.42
0.97
6.46
11.38
15.88
19.89
23.23
25.78
27.55
28.69
29.42
29.91
30.27
30.54
30.7
30.8
30.84
30.84
30.75
30.46
29.82
28.73
27.17
25.28
23.26
21.31
19.47
17.6
15.44
12.75
9.42
5.62
1.66
-2.1
-5.51
-8.62
-11.69
-15.08
-19.08
-23.88
-29.44
-35.51
-41.52
-46.64
-49.95
-50.61
-48.21
-42.87
-35.31
-26.57
-17.76
-9.64
-2.52
3.71
9.33
14.57
19.42
23.63
26.87
28.89
29.7
29.64
29.22
28.86
28.81
29.04
29.37
29.64
29.82
29.97
30.12
30.19
29.95
29.1
27.47
25.12
22.34
19.53
17.01
14.84
12.87
10.75
8.22
5.17
1.73
-1.78
-5.07
-7.97
-10.51
-12.96
-15.64
-18.86
-22.79
-27.45
-32.64
-37.91
-42.57
-45.71
-46.52
-44.47
-39.59
-32.47
-24.08
-15.47
-7.41
-0.31
5.81
11.03
15.45
19.01
21.63
23.29
24.1
24.31
24.26
24.22
24.35
24.67
25.07
25.41
25.55
25.41
24.99
24.35
23.55
22.6
21.42
19.97
18.22
16.23
14.14
12.07
10.06
8.06
5.96
3.66
1.13
-1.56
-4.34
-7.15
-10.04
-13.08
-16.41
-20.1
-24.12
-28.31
-32.28
-35.43
-37.09
-36.67
-33.93
-29.04
-22.59
-15.37
-8.16
-1.5
4.3
9.16
13.09
16.12
18.29
19.61
20.21
20.23
19.93
19.55
19.29
19.26
19.42
19.62
19.7
19.53
19.08
18.42
17.63
16.76
15.77
14.58
13.16
11.52
9.7
7.71
5.49
2.94
-0.01
-3.3
-6.76
-10.15
-13.24
-15.91
-18.24
-20.44
-22.8
-25.59
-29.02
-33.1
-37.57
-41.9
-45.26
-46.79
-45.78
-42.02
-35.86
-28.15
-19.92
-12.07
-5.11
0.86
5.99
10.44
14.26
17.35
19.58
20.93
21.54
21.69
21.7
21.73
21.82
21.89
21.82
21.59
21.27
20.98
20.79
20.63
20.3
19.55
18.22
16.37
14.24
12.15
10.33
8.83
7.49
6.02
4.17
1.83
-0.92
-3.84
-6.66
-9.17
-11.31
-13.2
-15.1
-17.29
-20.04
-23.49
-27.57
-31.94
-35.99
-38.92
-39.93
-38.51
-34.63
-28.76
-21.8
-14.62
-7.9
-1.94
3.28
7.89
11.95
15.37
18.02
19.81
20.82
21.24
21.35
21.36
21.36
21.33
21.21
21.01
20.74
20.53
20.43
20.47
20.55
20.5
20.15
19.37
18.13
16.5
14.6
12.61
10.67
8.82
7.0
5.1
2.96
0.53
-2.15
-4.88
-7.44
-9.67
-11.55
-13.25
-15.02
-17.11
-19.73
-22.99
-26.86
-31.15
-35.42
-39.0
-41.1
-41.02
-38.45
-33.58
-27.09
-19.9
-12.88
-6.61
-1.26
3.29
7.24
10.72
13.71
16.09
17.76
18.69
18.99
18.85
18.46
17.97
17.5
17.08
16.75
16.52
16.4
16.37
16.33
16.17
15.72
14.85
13.51
11.73
9.69
7.61
5.71
4.09
2.73
1.47
0.06
-1.69
-3.84
-6.23
-8.61
-10.7
-12.32
-13.51
-14.5
-15.58
-17.05
-19.12
-21.89
-25.31
-29.16
-32.99
-36.11
-37.74
-37.28
-34.47
-29.63
-23.46
-16.87
-10.58
-5.01
-0.25
3.77
7.14
9.84
11.8
12.99
13.53
13.65
13.61
13.59
13.64
13.72
13.75
13.71
13.64
13.63
13.71
13.82
13.76
13.32
12.32
10.76
8.82
6.8
4.99
3.51
2.31
1.19
-0.09
-1.66
-3.54
-5.63
-7.77
-9.87
-11.82
-13.55
-15.04
-16.31
-17.5
-18.88
-20.78
-23.45
-26.86
-30.6
-33.89
-35.82
-35.67
-33.14
-28.46
-22.33
-15.6
-9.09
-3.34
1.42
5.22
8.25
10.65
12.49
13.72
14.29
14.19
13.58
12.71
11.91
11.44
11.39
11.71
12.2
12.63
12.84
12.8
12.6
12.32
12.03
11.65
11.04
10.05
8.63
6.94
5.22
3.75
2.63
1.73
0.73
-0.7
-2.75
-5.31
-8.1
-10.77
-13.06
-14.96
-16.64
-18.36
-20.36
-22.79
-25.73
-29.19
-33.13
-37.34
-41.38
-44.54
-45.95
-44.94
-41.27
-35.3
-27.93
-20.22
-13.09
-7.0
-1.98
2.21
5.82
8.95
11.52
13.39
14.54
15.1
15.33
15.48
15.72
16.06
16.39
16.59
16.58
16.38
16.1
15.91
15.88
15.98
16.06
15.89
15.26
14.11
12.52
10.71
8.93
7.32
5.85
4.33
2.52
0.28
-2.36
-5.19
-7.96
-10.45
-12.6
-14.47
-16.27
-18.19
-20.46
-23.27
-26.77
-31.01
-35.84
-40.81
-45.19
-48.09
-48.71
-46.64
-41.95
-35.26
-27.46
-19.49
-12.05
-5.52
0.02
4.64
8.46
11.52
13.84
15.42
16.37
16.9
17.21
17.49
17.8
18.07
18.22
18.18
18.05
18.0
18.23
18.76
19.49
20.1
20.25
19.72
18.47
16.66
14.57
12.46
10.47
8.59
6.69
4.58
2.12
-0.71
-3.77
-6.83
-9.7
-12.29
-14.65
-16.98
-19.5
-22.46
-25.99
-30.04
-34.37
-38.45
-41.53
-42.8
-41.65
-37.84
-31.68
-23.95
-15.67
-7.78
-0.88
4.79
9.31
12.87
15.66
17.75
19.19
20.05
20.47
20.66
20.79
20.95
21.11
21.2
21.17
21.03
20.93
20.94
21.06
21.15
20.95
20.21
18.81
16.88
14.68
12.54
10.68
9.1
7.61
5.95
3.9
1.39
-1.49
-4.56
-7.66
-10.68
-13.64
-16.6
-19.7
-23.14
-27.09
-31.7
-36.95
-42.5
-47.66
-51.47
-52.95
-51.44
-46.86
-39.8
-31.29
-22.49
-14.28
-7.1
-0.96
4.31
8.89
12.72
15.66
17.54
18.41
18.53
18.32
18.19
18.36
18.81
19.39
19.92
20.31
20.6
20.86
21.11
21.22
20.99
20.2
18.75
16.68
14.17
11.49
8.86
6.43
4.24
2.24
0.3
-1.72
-3.95
-6.43
-9.09
-11.78
-14.37
-16.77
-19.03
-21.35
-23.98
-27.23
-31.23
-35.97
-41.12
-46.04
-49.9
-51.82
-51.18
-47.73
-41.78
-33.98
-25.2
-16.24
-7.67
0.18
7.17
13.26
18.44
22.68
26.02
28.53
30.39
31.81
33.04
34.28
35.58
36.84
37.84
38.33
38.19
37.56
36.73
36.05
35.67
35.49
35.15
34.26
32.61
30.29
27.65
25.13
23.03
21.34
19.81
18.05
15.71
12.66
8.97
4.94
0.89
-2.89
-6.29
-9.41
-12.52
-15.95
-20.01
-24.9
-30.59
-36.78
-42.82
-47.85
-50.93
-51.35
-48.8
-43.56
-36.34
-28.09
-19.6
-11.38
-3.56
3.94
11.17
17.99
24.12
29.21
33.08
35.74
37.48
38.63
39.51
40.24
40.77
40.97
40.76
40.2
39.45
38.68
37.95
37.12
35.93
34.08
31.41
28.01
24.14
20.15
16.38
13.0
9.98
7.16
4.28
1.16
-2.24
-5.81
-9.26
-12.35
-14.93
-17.03
-18.88
-20.8
-23.16
-26.2
-30.05
-34.61
-39.56
-44.33
-48.12
-50.1
-49.55
-46.13
-40.0
-31.83
-22.56
-13.2
-4.5
3.09
9.47
14.68
18.82
21.9
23.92
25.01
25.42
25.52
25.68
26.07
26.66
27.27
27.7
27.87
27.82
27.67
27.49
27.23
26.76
25.89
24.52
22.65
20.38
17.88
15.26
12.6
9.93
7.2
4.38
1.45
-1.55
-4.55
-7.5
-10.41
-13.36
-16.6
-20.37
-24.87
-30.06
-35.56
-40.65
-44.36
-45.8
-44.38
-40.08
-33.43
-25.3
-16.67
-8.29
-0.6
6.22
12.15
17.19
21.29
24.37
26.45
27.64
28.2
28.39
28.47
28.57
28.72
28.86
28.89
28.78
28.58
28.36
28.2
28.02
27.62
26.7
25.03
22.53
19.39
16.0
12.75
9.88
7.37
4.98
2.39
-0.63
-4.11
-7.84
-11.52
-14.85
-17.67
-20.01
-22.13
-24.43
-27.35
-31.27
-36.27
-42.06
-47.89
-52.72
-55.44
-55.19
-51.62
-45.03
-36.26
-26.43
-16.66
-7.72
0.04
6.63
12.28
17.22
21.47
24.95
27.51
29.12
29.94
30.32
30.61
31.06
31.72
32.44
33.02
33.32
33.35
33.23
33.09
32.92
32.56
31.79
30.4
28.36
25.83
23.07
20.33
17.76
15.33
12.93
10.39
7.57
4.43
1.03
-2.51
-6.0
-9.26
-12.18
-14.81
-17.4
-20.35
-24.12
-29.03
-35.07
-41.79
-48.33
-53.54
-56.36
-56.08
-52.54
-46.16
-37.8
-28.48
-19.12
-10.38
-2.56
4.24
10.06
14.95
18.92
21.96
24.08
25.37
26.03
26.35
26.61
26.98
27.49
28.06
28.56
28.93
29.22
29.54
29.93
30.31
30.42
29.92
28.55
26.29
23.39
20.28
17.39
14.95
12.91
11.01
8.88
6.23
2.96
-0.78
-4.65
-8.31
-11.52
-14.24
-16.64
-19.08
-21.95
-25.55
-30.07
-35.37
-41.07
-46.44
-50.56
-52.52
-51.68
-47.85
-41.45
-33.32
-24.49
-15.9
-8.15
-1.49
4.08
8.73
12.6
15.77
18.28
20.14
21.38
22.09
22.38
22.41
22.34
22.3
22.38
22.58
22.84
23.09
23.21
23.14
22.81
22.19
21.25
19.97
18.36
16.51
14.53
12.54
10.59
8.62
6.47
3.97
1.07
-2.13
-5.39
-8.45
-11.16
-13.59
-15.98
-18.68
-21.97
-25.97
-30.54
-35.27
-39.54
-42.56
-43.59
-42.11
-38.0
-31.59
-23.63
-15.07
-6.81
0.49
6.51
11.21
14.72
17.2
18.77
19.49
19.47
18.9
18.11
17.44
17.15
17.29
17.72
18.21
18.63
18.99
19.44
20.08
20.82
21.3
21.1
19.92
17.8
15.1
12.34
9.96
8.11
6.6
5.06
3.12
0.54
-2.65
-6.24
-9.88
-13.3
-16.33
-18.95
-21.38
-23.94
-27.02
-30.95
-35.8
-41.35
-46.97
-51.74
-54.64
-54.85
-51.98
-46.27
-38.48
-29.67
-20.88
-12.87
-5.99
-0.23
4.67
8.93
12.69
15.89
18.41
20.17
21.24
21.85
22.29
22.81
23.48
24.22
24.86
25.33
25.61
25.84
26.11
26.38
26.47
26.14
25.18
23.55
21.36
18.8
16.1
13.41
10.78
8.17
5.49
2.66
-0.32
-3.38
-6.44
-9.35
-12.06
-14.59
-17.1
-19.78
-22.9
-26.65
-31.12
-36.16
-41.34
-45.92
-49.0
-49.75
-47.71
-42.94
-36.03
-27.89
-19.46
-11.48
-4.34
1.86
7.17
11.67
15.34
18.15
20.08
21.17
21.63
21.73
21.77
21.99
22.46
23.09
23.65
23.99
24.04
23.9
23.73
23.65
23.57
23.26
22.42
20.81
18.47
15.62
12.65
9.9
7.56
5.59
3.75
1.79
-0.53
-3.25
-6.25
-9.27
-12.06
-14.47
-16.56
-18.52
-20.65
-23.26
-26.57
-30.65
-35.36
-40.33
-44.87
-48.1
-49.16
-47.45
-42.92
-36.09
-27.9
-19.4
-11.44
-4.48
1.4
6.28
10.27
13.37
15.55
16.83
17.39
17.52
17.57
17.81
18.36
19.13
19.98
20.73
21.23
21.45
21.43
21.23
20.87
20.28
19.32
17.91
16.02
13.82
11.57
9.53
7.8
6.25
4.6
2.56
0.04
-2.8
-5.69
-8.34
-10.65
-12.75
-14.97
-17.61
-20.91
-24.93
-29.55
-34.47
-39.17
-42.98
-45.1
-44.86
-41.92
-36.41
-28.99
-20.62
-12.33
-4.89
1.34
6.36
10.36
13.56
16.06
17.84
18.89
19.27
19.19
18.88
18.58
18.4
18.4
18.59
18.97
19.53
20.17
20.7
20.85
20.38
19.2
17.41
15.25
13.02
10.91
8.94
6.98
4.8
2.27
-0.62
-3.74
-6.9
-9.95
-12.8
-15.52
-18.27
-21.26
-24.69
-28.67
-33.22
-38.09
-42.77
-46.47
-48.3
-47.55
-43.95
-37.78
-29.83
-21.1
-12.46
-4.48
2.65
8.97
14.54
19.36
23.33
26.38
28.57
30.14
31.4
32.61
33.82
34.88
35.5
35.41
34.5
32.92
30.96
28.92
26.93
24.94
22.79
20.3
17.44
14.35
11.27
8.46
6.05
3.99
2.08
0.05
-2.34
-5.18
-8.38
-11.71
-14.9
-17.75
-20.3
-22.78
-25.57
-29.04
-33.49
-38.91
-44.98
-51.01
-56.09
-59.22
-59.61
-56.88
-51.19
-43.21
-33.95
-24.44
-15.5
-7.57
-0.7
5.3
10.64
15.45
19.65
23.05
25.55
27.16
28.11
28.69
29.12
29.5
29.78
29.85
29.7
29.43
29.18
29.06
29.04
28.9
28.36
27.14
25.15
22.48
19.48
16.54
13.98
11.91
10.12
8.24
5.89
2.93
-0.52
-4.09
-7.44
-10.36
-12.97
-15.6
-18.67
-22.52
-27.29
-32.84
-38.67
-44.06
-48.05
-49.82
-48.81
-44.96
-38.73
-30.93
-22.5
-14.21
-6.52
0.41
6.61
12.11
16.85
20.71
23.52
25.27
26.12
26.41
26.54
26.82
27.37
28.12
28.88
29.46
29.78
29.86
29.76
29.52
29.09
28.31
27.02
25.14
22.72
19.94
17.08
14.39
11.97
9.76
7.57
5.19
2.52
-0.37
-3.35
-6.25
-8.98
-11.58
-14.17
-16.89
-19.92
-23.41
-27.51
-32.2
-37.22
-41.93
-45.47
-46.92
-45.69
-41.68
-35.42
-27.78
-19.72
-11.98
-4.97
1.2
6.56
11.17
14.98
17.92
19.96
21.15
21.67
21.77
21.72
21.74
21.95
22.36
22.92
23.54
24.14
24.66
25.02
25.12
24.8
23.98
22.62
20.78
18.63
16.32
13.98
11.65
9.3
6.87
4.32
1.65
-1.12
-3.96
-6.84
-9.8
-12.87
-16.19
-19.9
-24.13
-28.88
-33.91
-38.65
-42.27
-43.88
-42.8
-38.84
-32.43
-24.48
-16.06
-8.08
-1.05
4.91
9.86
13.93
17.16
19.53
21.11
22.06
22.58
22.89
23.11
23.3
23.45
23.59
23.77
24.0
24.24
24.43
24.43
24.14
23.46
22.38
20.92
19.17
17.27
15.33
13.42
11.49
9.38
6.93
3.99
0.58
-3.11
-6.8
-10.26
-13.33
-16.03
-18.55
-21.14
-24.16
-27.9
-32.5
-37.8
-43.23
-47.84
-50.58
-50.54
-47.38
-41.39
-33.46
-24.72
-16.15
-8.36
-1.51
4.52
9.92
14.73
18.87
22.15
24.5
26.0
26.91
27.5
28.01
28.5
28.91
29.15
29.18
29.13
29.15
29.37
29.73
29.99
29.84
29.05
27.6
25.7
23.64
21.67
19.87
18.12
16.21
13.91
11.11
7.79
4.07
0.15
-3.76
-7.48
-10.89
-14.07
-17.27
-20.87
-25.25
-30.59
-36.67
-42.86
-48.17
-51.56
-52.19
-49.75
-44.5
-37.18
-28.78
-20.25
-12.22
-4.99
1.47
7.32
12.68
17.51
21.6
24.7
26.69
27.64
27.89
27.89
28.02
28.41
28.94
29.27
29.12
28.36
27.09
25.54
23.92
22.26
20.44
18.26
15.67
12.81
10.02
7.66
5.9
4.64
3.52
2.12
0.18
-2.28
-4.95
-7.42
-9.45
-10.99
-12.32
-13.8
-15.78
-18.49
-21.98
-26.22
-31.04
-36.09
-40.74
-44.21
-45.7
-44.73
-41.34
-36.15
-30.15
-24.29
-19.21
-15.03
-11.51
-8.35
-5.33
-2.52
-0.14
1.64
2.8
3.53
4.14
4.9
5.96
7.31
8.81
10.31
11.69
12.93
14.05
15.05
15.86
16.33
16.3
15.65
14.4
12.69
10.75
8.77
6.88
5.07
3.24
1.32
-0.75
-2.93
-5.15
-7.37
-9.6
-11.89
-14.33
-17.04
-20.15
-23.76
-27.85
-32.22
-36.38
-39.58
-40.99
-39.98
-36.33
-30.4
-22.99
-15.08
-7.5
-0.75
5.05
9.95
14.01
17.16
19.32
20.48
20.81
20.64
20.35
20.16
20.09
20.04
19.88
19.61
19.34
19.24
19.38
19.64
19.78
19.53
18.72
17.36
15.59
13.59
11.5
9.35
7.06
4.51
1.68
-1.4
-4.58
-7.69
-10.6
-13.31
-15.93
-18.7
-21.87
-25.66
-30.2
-35.34
-40.62
-45.28
-48.4
-49.16
-47.08
-42.29
-35.45
-27.52
-19.44
-11.87
-5.07
0.99
6.37
11.11
15.07
18.11
20.16
21.32
21.84
22.02
22.07
22.1
22.12
22.09
22.02
21.94
21.92
22.0
22.11
22.14
21.94
21.33
20.23
18.63
16.63
14.4
12.13
9.97
7.94
5.92
3.69
1.05
-2.05
-5.5
-9.01
-12.28
-15.17
-17.7
-20.15
-22.86
-26.17
-30.31
-35.21
-40.54
-45.67
-49.77
-51.99
-51.68
-48.58
-42.94
-35.45
-26.98
-18.41
-10.39
-3.23
2.99
8.34
12.88
16.64
19.63
21.86
23.4
24.33
24.82
24.96
24.89
24.69
24.44
24.25
24.18
24.26
24.46
24.66
24.64
24.2
23.14
21.38
19.01
16.25
13.43
10.81
8.55
6.55
4.6
2.41
-0.22
-3.31
-6.67
-10.04
-13.21
-16.09
-18.86
-21.83
-25.37
-29.71
-34.86
-40.48
-45.99
-50.56
-53.31
-53.53
-50.88
-45.47
-37.94
-29.21
-20.29
-11.93
-4.54
1.83
7.33
12.04
15.97
19.01
21.1
22.33
22.94
23.23
23.42
23.59
23.71
23.71
23.6
23.48
23.51
23.8
24.29
24.77
24.92
24.46
23.25
21.38
19.13
16.84
14.69
12.71
10.7
8.46
5.81
2.79
-0.48
-3.83
-7.14
-10.36
-13.51
-16.61
-19.71
-22.94
-26.48
-30.58
-35.36
-40.59
-45.61
-49.45
-51.07
-49.8
-45.61
-39.07
-31.19
-23.01
-15.26
-8.23
-1.92
3.79
8.93
13.39
16.97
19.53
21.04
21.62
21.48
20.91
20.15
19.46
19.01
18.95
19.3
19.99
20.86
21.66
22.18
22.23
21.72
20.67
19.18
17.39
15.42
13.37
11.27
9.12
6.86
4.47
1.9
-0.83
-3.72
-6.74
-9.9
-13.27
-16.99
-21.2
-26.02
-31.32
-36.72
-41.51
-44.84
-45.95
-44.42
-40.28
-34.04
-26.48
-18.46
-10.71
-3.66
2.47
7.65
11.96
15.5
18.38
20.7
22.57
24.06
25.21
26.09
26.72
27.17
27.5
27.76
28.01
28.2
28.25
27.98
27.21
25.86
23.92
21.56
18.94
16.22
13.45
10.61
7.63
4.48
1.12
-2.4
-6.03
-9.71
-13.4
-17.06
-20.71
-24.42
-28.38
-32.82
-37.81
-43.16
-48.22
-52.05
-53.59
-52.11
-47.47
-40.21
-31.32
-21.92
-12.88
-4.65
2.69
9.27
15.13
20.22
24.35
27.41
29.44
30.67
31.42
31.95
32.35
32.59
32.59
32.39
32.16
32.09
32.28
32.58
32.65
32.12
30.76
28.57
25.85
22.94
20.14
17.53
14.97
12.26
9.19
5.7
1.86
-2.16
-6.14
-9.93
-13.45
-16.72
-19.87
-23.11
-26.72
-30.98
-36.04
-41.79
-47.72
-52.97
-56.51
-57.41
-55.18
-49.98
-42.5
-33.72
-24.63
-15.88
-7.76
-0.31
6.5
12.59
17.77
21.83
24.69
26.45
27.41
27.92
28.25
28.57
28.87
29.08
29.18
29.2
29.23
29.34
29.51
29.62
29.46
28.83
27.6
25.82
23.71
21.54
19.5
17.61
15.68
13.39
10.48
6.88
2.81
-1.35
-5.21
-8.53
-11.35
-13.94
-16.67
-19.9
-23.93
-28.88
-34.69
-40.95
-46.89
-51.52
-53.79
-52.98
-48.98
-42.31
-33.98
-25.09
-16.46
-8.53
-1.35
5.09
10.8
15.66
19.56
22.5
24.62
26.15
27.3
28.16
28.73
28.98
28.95
28.75
28.6
28.62
28.89
29.29
29.59
29.54
28.91
27.65
25.84
23.7
21.47
19.33
17.28
15.19
12.86
10.15
7.03
3.6
0.04
-3.44
-6.66
-9.52
-12.06
-14.47
-17.07
-20.25
-24.33
-29.38
-35.1
-40.76
-45.38
-48.01
-47.98
-45.12
-39.74
-32.55
-24.41
-16.15
-8.37
-1.41
4.6
9.65
13.77
16.97
19.32
20.86
21.77
22.26
22.55
22.8
23.1
23.46
23.82
24.16
24.49
24.78
24.99
25.0
24.67
23.89
22.64
20.96
19.01
16.94
14.85
12.71
10.44
7.92
5.09
2.0
-1.22
-4.45
-7.59
-10.65
-13.72
-16.95
-20.5
-24.52
-29.1
-34.19
-39.49
-44.39
-48.04
-49.55
-48.28
-44.14
-37.62
-29.63
-21.18
-13.08
-5.77
0.69
6.39
11.4
15.66
19.07
21.52
23.06
23.91
24.38
24.77
25.2
25.66
25.99
26.08
25.91
25.64
25.49
25.6
25.89
26.07
25.76
24.66
22.71
20.09
17.13
14.22
11.58
9.27
7.15
4.97
2.51
-0.33
-3.49
-6.74
-9.8
-12.51
-14.85
-17.04
-19.45
-22.47
-26.36
-31.19
-36.75
-42.57
-47.93
-51.93
-53.71
-52.68
-48.69
-42.16
-33.94
-25.04
-16.34
-8.37
-1.34
4.78
10.06
14.48
18.0
20.57
22.26
23.25
23.78
24.13
24.45
24.8
25.17
25.45
25.6
25.62
25.6
25.63
25.77
25.93
25.87
25.31
24.0
21.92
19.31
16.54
14.02
11.91
10.14
8.39
6.29
3.59
0.31
-3.37
-7.08
-10.54
-13.6
-16.33
-18.97
-21.81
-25.15
-29.13
-33.67
-38.42
-42.74
-45.8
-46.83
-45.31
-41.2
-34.97
-27.44
-19.5
-11.84
-4.78
1.61
7.4
12.54
16.84
20.02
21.94
22.68
22.65
22.35
22.19
22.38
22.85
23.39
23.82
24.11
24.35
24.67
25.11
25.5
25.57
25.0
23.65
21.54
18.93
16.15
13.53
11.24
9.26
7.38
5.3
2.77
-0.28
-3.71
-7.26
-10.59
-13.52
-16.07
-18.44
-20.98
-24.0
-27.68
-31.98
-36.62
-41.02
-44.44
-46.07
-45.3
-41.93
-36.22
-28.93
-20.95
-13.12
-5.94
0.42
6.0
10.88
15.05
18.38
20.71
21.98
22.3
21.97
21.37
20.84
20.59
20.67
21.04
21.55
22.08
22.47
22.59
22.28
21.44
20.03
18.12
15.87
13.43
10.95
8.5
6.09
3.72
1.41
-0.84
-3.06
-5.35
-7.83
-10.66
-13.94
-17.72
-21.96
-26.54
-31.28
-35.84
-39.72
-42.3
-42.98
-41.31
-37.23
-31.12
-23.75
-16.04
-8.76
-2.41
2.91
7.33
11.02
14.03
16.26
17.56
17.9
17.42
16.52
15.61
15.04
14.93
15.18
15.55
15.78
15.67
15.14
14.23
13.05
11.7
10.27
8.78
7.17
5.32
3.15
0.58
-2.34
-5.46
-8.59
-11.57
-14.31
-16.85
-19.37
-22.08
-25.19
-28.91
-33.33
-38.38
-43.75
-48.82
-52.73
-54.56
-53.65
-49.82
-43.47
-35.44
-26.74
-18.22
-10.4
-3.43
2.75
8.24
13.02
16.98
19.99
21.99
23.05
23.37
23.2
22.83
22.43
22.13
22.0
22.05
22.25
22.5
22.67
22.55
21.99
20.92
19.4
17.58
15.6
13.54
11.37
8.96
6.25
3.24
0.02
-3.28
-6.54
-9.72
-12.84
-15.95
-19.17
-22.68
-26.73
-31.53
-37.02
-42.79
-47.97
-51.49
-52.44
-50.37
-45.5
-38.56
-30.53
-22.28
-14.37
-7.04
-0.36
5.68
11.01
15.54
19.23
22.08
24.16
25.62
26.59
27.18
27.45
27.5
27.39
27.25
27.16
27.19
27.3
27.39
27.29
26.83
25.9
24.44
22.52
20.29
17.88
15.41
12.9
10.26
7.33
4.04
0.43
-3.27
-6.78
-9.88
-12.65
-15.38
-18.56
-22.62
-27.74
-33.68
-39.87
-45.47
-49.61
-51.55
-50.81
-47.32
-41.4
-33.71
-25.12
-16.43
-8.25
-0.9
5.6
11.32
16.32
20.53
23.85
26.2
27.65
28.43
28.86
29.21
29.58
29.94
30.18
30.27
30.24
30.2
30.24
30.34
30.35
30.04
29.22
27.78
25.81
23.49
21.05
18.66
16.35
14.01
11.45
8.51
5.12
1.42
-2.36
-5.91
-9.03
-11.74
-14.22
-16.86
-20.08
-24.17
-29.16
-34.71
-40.16
-44.61
-47.21
-47.26
-44.53
-39.27
-32.11
-23.88
-15.41
-7.27
0.23
6.92
12.77
17.64
21.38
23.89
25.22
25.64
25.53
25.31
25.23
25.36
25.58
25.72
25.66
25.41
25.06
24.77
24.6
24.53
24.41
24.07
23.34
22.23
20.77
19.08
17.22
15.2
12.94
10.36
7.41
4.16
0.78
-2.54
-5.64
-8.49
-11.22
-14.1
-17.41
-21.4
-26.11
-31.3
-36.5
-41.0
-44.05
-45.02
-43.51
-39.53
-33.41
-25.82
-17.52
-9.23
-1.44
5.6
11.81
17.16
21.58
24.91
27.04
28.02
28.09
27.72
27.38
27.39
27.82
28.49
29.08
29.36
29.26
28.86
28.36
27.85
27.34
26.69
25.76
24.43
22.71
20.71
18.58
16.45
14.36
12.28
10.12
7.8
5.25
2.43
-0.62
-3.81
-7.03
-10.19
-13.24
-16.17
-19.05
-22.07
-25.4
-29.22
-33.65
-38.56
-43.6
-48.15
-51.44
-52.73
-51.53
-47.77
-41.8
-34.31
-26.07
-17.77
-9.83
-2.49
4.21
10.21
15.47
19.85
23.27
25.67
27.14
27.85
28.02
27.9
27.66
27.43
27.26
27.19
27.24
27.42
27.69
27.97
28.12
28.03
27.6
26.79
25.59
24.05
22.23
20.18
17.95
15.58
13.14
10.69
8.29
5.98
3.72
1.41
-1.05
-3.72
-6.52
-9.34
-12.01
-14.46
-16.73
-19.0
-21.46
-24.31
-27.67
-31.64
-36.17
-41.02
-45.73
-49.5
-51.46
-50.87
-47.45
-41.51
-33.84
-25.5
-17.43
-10.19
-3.92
1.52
6.33
10.6
14.24
17.15
19.23
20.56
21.35
21.85
22.26
22.69
23.07
23.35
23.49
23.53
23.59
23.71
23.92
24.08
24.01
23.55
22.63
21.29
19.63
17.74
15.7
13.58
11.43
9.32
7.29
5.37
3.46
1.48
-0.64
-2.88
-5.13
-7.27
-9.26
-11.16
-13.13
-15.37
-18.01
-21.09
-24.58
-28.39
-32.39
-36.33
-39.76
-42.09
-42.67
-41.06
-37.19
-31.46
-24.63
-17.52
-10.83
-4.9
0.22
4.65
8.52
11.85
14.51
16.36
17.29
17.4
16.96
16.34
15.87
15.73
15.85
16.02
16.07
15.94
15.74
15.64
15.72
15.88
15.85
15.37
14.32
12.73
10.82
8.83
6.92
5.14
3.44
1.73
-0.07
-2.0
-4.06
-6.25
-8.53
-10.85
-13.14
-15.37
-17.55
-19.77
-22.21
-25.07
-28.48
-32.33
-36.24
-39.55
-41.49
-41.46
-39.2
-34.86
-28.99
-22.27
-15.39
-8.8
-2.76
2.63
7.33
11.29
14.45
16.74
18.16
18.81
18.88
18.62
18.25
17.9
17.63
17.39
17.11
16.81
16.53
16.39
16.43
16.58
16.65
16.36
15.51
14.1
12.27
10.3
8.41
6.75
5.28
3.91
2.52
1.05
-0.52
-2.23
-4.15
-6.3
-8.71
-11.29
-13.89
-16.38
-18.66
-20.8
-22.98
-25.46
-28.48
-32.11
-36.22
-40.32
-43.69
-45.49
-45.06
-42.15
-37.01
-30.34
-23.0
-15.83
-9.31
-3.61
1.38
5.81
9.76
13.18
15.91
17.81
18.86
19.14
18.91
18.42
17.86
17.34
16.85
16.4
16.01
15.77
15.77
16.04
16.48
16.88
16.99
16.59
15.61
14.12
12.29
10.38
8.55
6.9
5.42
4.05
