BVP
18.44
10.92
1.67
-8.54
-18.91
-28.82
-38.01
-46.59
-55.02
-64.03
-74.3
-86.19
-99.22
-111.74
-121.07
-124.05
-118.15
-102.38
-77.8
-47.35
-14.93
15.7
41.74
61.69
75.19
82.62
84.68
82.32
76.66
69.01
60.79
53.22
47.14
42.88
40.24
38.74
37.82
37.08
36.26
35.2
33.69
31.31
27.58
22.01
14.46
5.24
-4.93
-15.13
-24.58
-32.94
-40.4
-47.73
-55.93
-65.98
-78.24
-92.08
-105.61
-115.85
-119.49
-113.87
-98.11
-73.49
-43.22
-11.45
17.98
42.46
60.86
73.28
80.34
82.76
81.09
75.92
68.09
58.81
49.5
41.48
35.61
32.16
30.73
30.53
30.59
30.08
28.43
25.36
20.91
15.23
8.51
0.98
-7.22
-15.91
-24.96
-34.3
-44.04
-54.5
-65.99
-78.44
-90.92
-101.47
-107.29
-105.62
-94.7
-74.57
-47.3
-16.41
14.08
40.81
61.68
75.99
84.05
86.66
84.67
78.93
70.36
60.1
49.53
40.04
32.8
28.41
26.79
27.23
28.6
29.66
29.37
27.03
22.47
15.89
7.85
-0.99
-9.98
-18.7
-26.99
-35.0
-43.22
-52.3
-62.89
-75.22
-88.72
-101.71
-111.55
-115.22
-110.24
-95.61
-72.28
-43.06
-11.8
17.68
42.44
60.97
73.03
79.31
80.86
78.8
74.15
67.84
60.78
53.87
47.91
43.45
40.68
39.41
39.2
39.48
39.66
39.2
37.61
34.44
29.38
22.33
13.59
3.8
-6.23
-15.71
-24.2
-31.8
-39.11
-47.11
-56.72
-68.28
-81.1
-93.23
-101.72
-103.39
-95.93
-78.75
-53.41
-23.2
7.91
36.32
59.65
76.92
88.25
94.3
95.91
93.96
89.39
83.33
77.0
71.43
67.29
64.69
63.24
62.41
61.74
61.15
60.8
60.9
61.4
61.81
61.26
58.78
53.65
45.63
35.01
22.44
8.69
-5.66
-20.45
-35.98
-52.81
-71.28
-90.98
-110.39
-126.85
-137.27
-138.86
-130.29
-112.01
-86.33
-56.7
-26.86
0.01
21.71
37.12
46.08
49.1
47.1
41.25
32.74
22.75
12.37
2.62
-5.6
-11.59
-15.07
-16.21
-15.69
-14.56
-13.9
-14.53
-16.85
-20.77
-25.93
-31.94
-38.54
-45.57
-53.01
-60.85
-69.22
-78.33
-88.32
-98.98
-109.41
-117.86
-121.97
-119.53
-109.27
-91.48
-68.11
-42.21
-17.03
4.82
21.81
33.48
40.14
42.46
41.35
37.81
33.01
28.2
24.46
22.46
22.25
23.33
24.87
26.12
26.67
26.48
25.84
25.14
24.67
24.58
24.82
25.16
25.22
24.39
21.89
16.86
8.61
-3.26
-18.64
-36.85
-56.57
-75.84
-92.1
-102.59
-104.9
-97.67
-81.11
-57.17
-29.1
-0.64
24.91
45.38
60.02
69.18
73.87
75.23
74.21
71.56
67.9
63.83
60.0
56.94
54.98
54.08
53.9
53.89
53.51
52.34
50.06
46.46
41.44
34.93
27.06
18.08
8.39
-1.57
-11.37
-20.78
-29.8
-38.77
-48.2
-58.52
-69.62
-80.44
-88.91
-92.39
-88.45
-75.89
-55.34
-29.32
-1.53
24.24
45.14
59.82
68.39
71.92
71.78
69.08
64.48
58.4
51.14
43.26
35.59
29.12
24.7
22.9
24.01
28.01
34.66
43.31
52.75
61.1
65.97
65.1
57.04
41.7
20.39
-4.64
-31.0
-56.97
-81.75
-105.15
-126.98
-146.35
-161.47
-170.02
-169.92
-160.15
-141.14
-114.73
-83.63
-50.67
-18.28
11.71
38.0
59.54
75.41
84.88
87.73
84.52
76.81
66.82
57.05
49.52
45.26
44.04
44.69
45.58
45.28
42.85
37.91
30.43
20.56
8.59
-4.89
-18.86
-31.99
-42.84
-50.46
-54.78
-56.73
-58.01
-60.34
-64.74
-70.79
-76.56
-79.1
-75.53
-64.08
-44.96
-20.44
6.0
30.78
51.41
67.09
78.55
87.39
95.19
102.89
110.5
117.38
122.72
126.05
127.4
127.28
126.21
124.35
121.38
116.56
109.12
98.57
84.78
67.9
48.15
25.81
1.36
-24.34
-49.83
-73.4
-93.49
-109.3
-120.95
-129.49
-136.38
-142.92
-149.78
-156.6
-162.19
-164.77
-162.6
-154.52
-140.38
-121.23
-99.01
-76.07
-54.47
-35.62
-20.21
-8.52
-0.94
1.84
-0.94
-9.43
-22.58
-38.06
-52.76
-63.74
-69.23
-68.94
-63.92
-55.9
-46.68
-37.71
-29.8
-23.04
-16.77
-9.87
-1.19
9.81
22.62
35.52
46.08
52.23
53.2
50.2
46.07
44.31
47.7
57.16
71.55
88.35
104.87
119.34
131.29
141.02
148.65
153.33
153.29
146.8
133.21
113.81
91.59
70.26
52.91
40.99
34.03
30.23
27.43
24.21
20.29
16.46
13.91
13.4
14.64
16.27
16.32
12.92
4.92
-7.82
-24.49
-43.52
-62.91
-80.46
-94.08
-102.07
-103.43
-98.07
-86.8
-71.22
-53.45
-35.78
-20.35
-8.92
-2.61
-1.71
-5.76
-13.65
-23.95
-35.21
-46.23
-56.06
-63.99
-69.52
-72.4
-72.65
-70.58
-66.67
-61.53
-55.82
-50.32
-45.93
-43.66
-44.41
-48.78
-56.88
-68.22
-81.55
-94.99
-106.2
-112.75
-112.65
-104.83
-89.5
-68.04
-42.73
-16.14
9.32
31.62
49.25
61.08
66.43
65.26
58.18
46.56
32.22
17.1
2.81
-9.57
-19.58
-27.3
-33.06
-37.24
-40.1
-41.8
-42.54
-42.71
-43.05
-44.67
-48.79
-56.4
-67.73
-81.8
-96.39
-108.32
-114.17
-111.24
-98.24
-75.68
-45.66
-11.3
24.02
57.23
85.94
108.49
123.97
132.05
133.12
128.22
118.95
107.23
94.9
83.41
73.46
65.07
57.75
50.94
44.41
38.37
33.41
30.1
28.65
28.55
28.49
26.52
20.54
9.05
-8.0
-28.72
-49.36
-65.2
-72.0
-67.28
-51.08
-25.69
5.23
37.74
68.44
94.63
114.3
126.06
129.32
124.49
113.12
97.56
80.26
63.2
47.46
33.28
20.43
8.6
-2.24
-11.89
-19.99
-26.24
-30.63
-33.54
-35.75
-38.33
-42.36
-48.55
-56.77
-65.65
-72.73
-74.99
-69.83
-56.01
-34.26
-7.03
22.31
50.52
75.33
95.67
111.39
122.69
129.76
132.7
131.85
128.03
122.56
116.99
112.53
109.77
108.6
108.52
109.07
110.14
111.98
115.02
119.67
126.17
134.51
144.26
154.56
163.84
169.99
170.97
165.64
154.5
139.86
125.24
114.08
108.46
108.53
112.88
119.56
127.06
134.54
141.49
146.85
148.74
145.05
134.55
117.87
97.74
77.96
61.86
51.02
45.02
42.09
40.29
38.28
35.41
31.14
24.62
14.7
0.5
-18.2
-40.89
-66.64
-94.35
-122.83
-150.41
-174.67
-192.65
-201.64
-200.26
-188.95
-169.92
-146.33
-121.44
-98.05
-78.45
-64.35
-56.94
-56.6
-62.56
-72.86
-84.6
-94.58
-99.94
-98.71
-90.07
-74.27
-52.32
-25.59
4.26
35.06
63.67
86.09
98.04
96.6
81.76
57.21
29.67
6.56
-6.64
-8.11
0.35
14.8
31.03
45.97
57.9
65.99
69.65
68.32
61.58
49.47
32.66
12.4
-9.64
-31.85
-53.01
-72.71
-91.45
-110.44
-131.06
-154.06
-178.91
-203.76
-226.02
-243.48
-255.3
-262.15
-265.74
-267.58
-267.71
-263.99
-252.55
-229.47
-192.75
-143.58
-86.27
-26.6
30.17
80.62
123.0
156.1
178.2
187.14
181.6
162.59
134.02
101.81
71.69
47.3
29.51
17.04
7.93
0.66
-5.56
-11.22
-16.9
-23.46
-31.67
-41.74
-53.09
-64.57
-74.93
-83.19
-88.7
-90.99
-89.62
-84.05
-73.91
-59.27
-40.84
-20.02
1.14
20.28
35.05
43.6
45.04
39.81
29.75
17.73
6.78
-0.92
-4.7
-5.41
-4.86
-4.9
-6.9
-11.54
-19.11
-29.73
-43.36
-59.44
-76.6
-92.6
-104.79
-110.87
-109.51
-100.77
-85.87
-66.72
-45.21
-22.77
-0.22
22.07
43.65
63.7
80.83
93.57
100.98
103.18
101.44
97.63
93.4
89.51
85.62
80.8
74.14
65.36
54.82
43.35
31.77
20.7
10.58
1.88
-4.8
-8.76
-9.34
-6.23
0.49
10.18
21.71
33.69
44.61
53.23
58.71
60.74
59.39
54.97
47.8
38.13
26.26
12.81
-1.18
-14.28
-25.03
-32.49
-36.62
-38.4
-39.43
-41.33
-44.97
-50.1
-55.49
-59.54
-61.03
-59.43
-54.89
-47.9
-38.83
-27.99
-15.89
-3.47
7.92
16.98
22.97
26.09
27.25
27.65
28.11
28.75
29.09
28.34
25.66
20.4
12.39
2.23
-8.37
-16.7
-19.84
-15.98
-5.56
8.3
20.83
27.52
26.08
17.44
5.17
-6.09
-12.66
-13.09
-8.22
-0.35
8.02
15.08
19.94
22.33
22.12
19.13
13.15
4.38
-6.31
-17.27
-26.56
-32.53
-34.45
-32.85
-29.17
-25.2
-22.39
-21.27
-21.42
-21.84
-21.43
-19.57
-16.28
-12.05
-7.51
-2.95
1.82
7.46
14.81
24.59
37.21
52.57
70.03
88.23
105.12
118.23
125.12
124.25
115.51
100.37
81.45
61.64
43.2
27.17
13.51
1.56
-9.4
-19.65
-29.14
-37.58
-44.7
-50.33
-54.29
-56.41
-56.57
-54.71
-50.89
-45.42
-38.68
-31.21
-23.63
-16.67
-11.14
-7.8
-7.17
-9.39
-14.19
-21.01
-29.12
-37.86
-46.65
-55.0
-62.49
-68.89
-74.1
-78.27
-81.75
-84.95
-88.22
-91.66
-94.99
-97.61
-98.7
-97.46
-93.43
-86.55
-77.28
-66.4
-54.83
-43.45
-32.98
-24.02
-17.0
-12.24
-9.93
-10.08
-12.45
-16.55
-21.7
-27.15
-32.25
-36.52
-39.74
-41.93
-43.36
-44.43
-45.62
-47.36
-49.86
-52.95
-56.09
-58.26
-58.33
-55.31
-48.72
-38.79
-26.46
-13.12
-0.26
10.79
19.18
24.49
26.64
25.81
22.39
16.92
10.08
2.74
-4.35
-10.53
-15.47
-19.14
-21.82
-23.9
-25.85
-28.02
-30.67
-33.89
-37.44
-40.83
-43.24
-43.78
-41.63
-36.34
-27.97
-17.1
-4.71
7.98
19.79
29.76
37.21
41.76
43.28
41.83
37.63
31.12
23.05
14.46
6.49
0.17
-3.97
-5.98
-6.45
-6.2
-6.06
-6.59
-8.11
-10.71
-14.27
-18.41
-22.37
-25.07
-25.29
-22.13
-15.29
-5.28
6.71
19.18
30.73
40.32
47.32
51.42
52.54
50.72
46.27
39.76
32.04
24.19
17.18
11.71
8.02
5.91
4.89
4.38
3.79
2.6
0.36
-3.22
-8.09
-13.73
-19.04
-22.6
-23.02
-19.5
-12.08
-1.73
10.02
21.54
31.45
38.86
43.31
44.68
43.09
38.83
32.46
24.82
16.86
9.58
3.77
-0.15
-2.13
-2.47
-1.72
-0.6
0.16
-0.11
-1.88
-5.25
-9.78
-14.47
-17.91
-18.7
-15.84
-9.14
0.73
12.43
24.41
35.3
44.11
50.3
53.54
53.69
50.8
45.18
37.57
29.02
20.7
13.63
8.49
5.55
4.72
5.59
7.42
9.15
9.58
7.62
2.76
-4.69
-13.42
-21.53
-27.04
-28.48
-25.32
-18.01
-7.78
3.79
15.14
25.02
32.57
37.33
39.14
38.06
34.39
28.65
21.63
14.39
8.0
3.37
0.95
0.57
1.54
2.9
3.66
3.11
0.87
-3.03
-8.2
-13.89
-19.05
-22.42
-22.77
-19.32
-12.04
-1.75
10.05
21.56
31.18
37.86
41.2
41.41
39.0
34.6
28.85
22.36
15.77
9.73
4.85
1.48
-0.31
-0.82
-0.61
-0.32
-0.62
-2.05
-5.0
-9.57
-15.38
-21.54
-26.76
-29.61
-28.98
-24.51
-16.64
-6.5
4.44
14.81
23.51
29.88
33.52
34.3
32.25
27.65
21.06
13.31
5.33
-1.98
-8.06
-12.69
-16.01
-18.43
-20.39
-22.27
-24.4
-27.06
-30.57
-35.2
-41.0
-47.55
-53.92
-58.77
-60.66
-58.63
-52.42
-42.43
-29.43
-14.17
2.66
20.35
37.86
53.69
66.13
73.75
75.88
72.81
65.47
54.62
40.32
22.16
0.27
-23.56
-45.66
-61.77
-69.24
-68.73
-63.83
-59.0
-56.44
-54.15
-46.44
-26.6
9.9
63.51
130.7
205.44
280.64
349.07
403.61
438.01
448.25
434.15
399.88
352.57
299.69
246.44
194.59
143.16
90.36
35.52
-19.86
-72.35
-117.74
-152.7
-176.28
-190.57
-200.07
-209.89
-223.17
-239.42
-254.41
-261.99
-256.77
-236.29
-201.74
-156.72
-105.3
-50.41
6.7
66.13
128.48
193.98
261.47
327.66
386.94
432.39
457.6
459.07
437.68
398.37
348.26
293.98
239.83
187.41
136.74
87.81
41.17
-2.48
-43.29
-82.61
-122.3
-163.26
-204.23
-241.74
-271.25
-288.72
-292.25
-282.71
-263.47
-239.37
-215.36
-195.18
-180.4
-170.29
-162.66
-155.05
-146.15
-136.22
-126.73
-119.17
-114.04
-110.54
-107.25
-103.09
-97.93
-92.43
-87.43
-83.36
-80.15
-77.69
-76.21
-76.25
-78.22
-81.67
-85.21
-86.77
-84.43
-77.16
-65.19
-49.77
-32.77
-16.19
-1.75
9.3
16.31
19.3
18.84
15.94
11.7
7.07
2.68
-1.13
-4.18
-6.4
-7.71
-8.2
-8.1
-7.83
-7.91
-8.91
-11.35
-15.57
-21.63
-29.13
-37.09
-44.04
-48.29
-48.36
-43.45
-33.72
-20.38
-5.33
9.3
21.62
30.37
35.04
35.81
33.39
28.72
22.84
16.71
11.11
6.58
3.33
1.3
0.2
-0.42
-1.0
-1.85
-3.2
-5.22
-8.15
-12.39
-18.3
-25.97
-34.8
-43.37
-49.62
-51.47
-47.49
-37.57
-22.95
-5.89
11.05
25.7
36.72
43.66
46.76
46.67
44.15
39.98
34.86
29.33
23.93
19.09
15.22
12.56
11.11
10.56
10.31
9.61
7.84
4.61
-0.22
-6.65
-14.55
-23.53
-32.71
-40.68
-45.57
-45.71
-40.21
-29.45
-15.02
0.81
15.77
28.27
37.53
43.41
46.03
45.62
42.47
37.14
30.57
23.96
18.5
14.93
13.34
13.15
13.44
13.3
12.16
9.89
6.68
2.7
-2.09
-8.04
-15.65
-25.02
-35.49
-45.44
-52.57
-54.63
-50.21
-39.4
-23.73
-5.81
11.64
26.49
37.61
44.74
48.12
48.13
45.23
40.0
33.35
26.41
20.36
15.94
13.25
11.79
10.77
9.51
7.67
5.25
2.4
-0.87
-4.82
-9.93
-16.76
-25.64
-36.4
-48.14
-59.23
-67.53
-70.98
-68.14
-58.87
-44.38
-27.05
-9.66
5.22
15.77
21.13
21.28
16.88
9.12
-0.46
-10.25
-18.9
-25.72
-30.73
-34.49
-37.68
-40.62
-43.1
-44.56
-44.67
-43.89
-43.46
-45.11
-50.2
-58.88
-69.73
-80.27
-87.77
-90.22
-86.72
-77.32
-62.72
-44.04
-23.12
-2.64
14.23
25.04
29.32
29.12
27.95
28.59
31.14
32.82
29.87
20.37
6.14
-7.62
-14.66
-10.56
5.77
32.35
65.6
102.03
139.19
175.86
211.68
246.34
278.83
306.7
325.91
331.56
319.75
289.68
244.62
191.17
136.92
87.85
46.79
13.84
-12.06
-31.6
-44.69
-51.23
-52.42
-51.13
-51.32
-56.49
-68.32
-85.83
-105.65
-123.19
-133.89
-134.52
-123.72
-102.1
-71.82
-35.75
3.53
44.38
86.56
131.04
179.13
230.85
283.65
332.07
368.96
387.71
384.78
361.02
321.24
272.27
220.44
169.78
121.45
74.74
28.62
-17.09
-61.18
-101.48
-135.61
-161.94
-179.92
-190.34
-194.91
-195.62
-194.04
-190.83
-185.88
-178.83
-169.75
-159.54
-149.59
-141.16
-134.8
-130.34
-127.36
-125.81
-126.03
-128.38
-132.33
-136.17
-137.24
-133.12
-122.63
-106.25
-85.98
-64.37
-43.86
-26.39
-13.32
-5.55
-3.33
-6.07
-12.26
-19.72
-26.27
-30.43
-31.76
-30.86
-28.77
-26.52
-24.68
-23.45
-22.78
-22.66
-23.2
-24.66
-27.37
-31.64
-37.7
-45.51
-54.47
-63.29
-70.09
-72.74
-69.66
-60.39
-45.93
-28.44
-10.57
5.31
17.62
25.77
29.8
30.11
27.26
21.93
15.05
7.79
1.36
-3.28
-5.74
-6.27
-5.65
-4.8
-4.48
-5.1
-6.7
-9.14
-12.36
-16.54
-22.03
-29.1
-37.52
-46.28
-53.6
-57.29
-55.53
-47.46
-33.67
-15.98
2.99
20.67
35.09
45.18
50.7
52.0
49.79
44.92
38.39
31.23
24.46
18.97
15.29
13.56
13.42
14.16
14.89
14.81
13.43
10.58
6.37
0.92
-5.74
-13.69
-22.85
-32.64
-41.8
-48.51
-50.81
-47.31
-37.69
-22.9
-4.93
13.71
30.61
43.89
52.48
56.11
55.23
50.83
44.19
36.69
29.58
23.77
19.75
17.57
16.92
17.22
17.78
17.95
17.28
15.6
12.93
9.37
4.9
-0.71
-7.77
-16.35
-25.91
-35.13
-42.06
-44.67
-41.51
-32.28
-18.03
-0.83
16.83
32.63
44.9
52.72
55.89
54.74
50.02
42.83
34.52
26.51
19.99
15.63
13.51
13.15
13.8
14.68
15.22
15.12
14.3
12.72
10.32
6.92
2.22
-4.05
-11.99
-21.2
-30.7
-38.97
-44.21
-44.9
-40.29
-30.71
-17.49
-2.66
11.66
23.67
32.17
36.52
36.63
32.88
26.01
17.16
7.68
-1.0
-7.86
-12.4
-14.82
-15.85
-16.42
-17.36
-19.22
-22.27
-26.53
-31.94
-38.53
-46.41
-55.77
-66.79
-79.31
-92.73
-105.82
-116.96
-124.44
-126.97
-124.12
-116.44
-105.25
-92.3
-79.36
-67.93
-59.1
-53.42
-50.94
-51.16
-53.08
-55.44
-56.86
-56.2
-52.72
-46.31
-37.52
-27.44
-17.35
-8.31
-0.92
4.7
8.66
11.01
11.6
10.32
7.47
4.04
1.56
1.67
5.6
13.71
25.53
40.0
55.76
71.32
85.22
96.08
102.86
104.96
102.43
95.9
86.39
75.16
63.53
52.72
43.72
37.08
32.84
30.48
29.26
28.41
27.47
26.32
25.03
23.65
22.0
19.73
16.5
12.28
7.54
3.28
0.74
1.08
4.97
12.39
22.72
34.84
47.46
59.21
68.8
75.08
77.23
74.91
68.44
58.83
47.62
36.5
26.91
19.71
15.08
12.56
11.36
10.65
9.79
8.42
6.45
3.84
0.59
-3.38
-8.14
-13.81
-20.41
-27.79
-35.53
-42.82
-48.38
-50.68
-48.28
-40.43
-27.39
-10.62
7.58
24.67
38.42
47.42
51.14
49.85
44.47
36.3
26.99
18.12
11.08
6.73
5.14
5.76
7.61
9.65
11.12
11.67
11.25
9.95
7.77
4.51
-0.24
-6.93
-15.77
-26.37
-37.55
-47.36
-53.55
-54.2
-48.41
-36.63
-20.65
-3.03
13.52
26.83
35.66
39.65
39.24
35.36
29.24
22.19
15.43
9.97
6.41
4.92
5.22
6.68
8.5
9.87
10.11
8.75
5.58
0.67
-5.8
-13.59
-22.4
-31.83
-41.15
-49.19
-54.4
-55.16
-50.29
-39.56
-23.89
-5.15
14.24
31.95
46.08
55.52
59.83
59.26
54.58
47.06
38.25
29.71
22.74
18.09
15.91
15.74
16.85
18.45
19.91
20.88
21.14
20.51
18.69
15.19
9.46
1.14
-9.57
-21.68
-33.41
-42.48
-46.7
-44.71
-36.43
-23.2
-7.46
8.02
20.82
29.36
33.03
32.06
27.23
19.65
10.71
1.94
-5.23
-9.67
-10.91
-9.15
-5.12
0.2
5.93
11.43
16.24
20.08
22.66
23.75
23.17
20.82
16.75
11.22
4.88
-1.21
-5.6
-6.9
-4.18
2.57
12.38
23.57
34.29
43.02
48.79
51.22
50.27
46.2
39.54
31.18
22.35
14.4
8.42
4.88
3.59
3.72
4.24
4.2
3.0
0.44
-3.34
-8.04
-13.43
-19.41
-26.07
-33.38
-40.99
-47.95
-52.74
-53.59
-49.22
-39.27
-24.65
-7.32
10.3
25.99
38.16
46.03
49.39
48.51
44.0
36.78
28.13
19.5
12.21
7.08
4.29
3.4
3.6
4.06
4.18
3.63
2.31
0.16
-2.98
-7.46
-13.66
-21.77
-31.44
-41.5
-50.02
-54.76
-53.84
-46.46
-33.29
-16.36
1.56
17.76
30.26
38.09
41.2
40.18
35.96
29.62
22.28
15.02
8.73
4.0
1.01
-0.42
-0.73
-0.46
-0.16
-0.29
-1.18
-3.06
-6.13
-10.57
-16.51
-23.98
-32.58
-41.34
-48.62
-52.48
-51.2
-43.96
-31.26
-14.88
2.61
18.6
31.08
38.95
42.03
40.87
36.4
29.72
22.04
14.42
7.77
2.63
-0.81
-2.74
-3.59
-3.91
-4.21
-4.89
-6.17
-8.2
-11.12
-15.13
-20.5
-27.38
-35.47
-43.87
-50.99
-54.93
-53.97
-47.23
-35.0
-18.81
-1.02
15.8
29.52
38.85
43.46
43.78
40.71
35.33
28.76
22.05
16.09
11.52
8.58
7.08
6.48
6.08
5.33
3.93
1.86
-0.77
-3.92
-7.74
-12.6
-18.9
-26.78
-35.85
-44.96
-52.35
-55.98
-54.21
-46.31
-32.86
-15.57
3.19
20.97
35.83
46.55
52.62
54.14
51.64
46.03
38.55
30.55
23.31
17.74
14.21
12.52
12.1
12.23
12.29
11.89
10.85
9.2
6.96
4.1
0.37
-4.63
-11.23
-19.47
-28.75
-37.75
-44.58
-47.29
-44.43
-35.67
-21.99
-5.44
11.39
26.11
37.05
43.51
45.63
44.12
39.94
34.13
27.68
21.56
16.61
13.37
11.97
12.0
12.73
13.29
13.01
11.58
9.01
5.52
1.3
-3.59
-9.28
-15.95
-23.66
-32.14
-40.62
-47.84
-52.21
-52.21
-46.9
-36.3
-21.57
-4.78
11.65
25.55
35.44
40.72
41.55
38.61
32.86
25.46
17.6
10.42
4.75
0.99
-0.92
-1.45
-1.18
-0.65
-0.19
0.01
-0.19
-0.95
-2.53
-5.23
-9.35
-15.03
-22.12
-29.93
-37.19
-42.12
-42.92
-38.35
-28.24
-13.75
2.91
19.15
32.6
41.73
45.96
45.57
41.39
34.59
26.48
18.31
11.19
5.81
2.43
0.77
0.25
0.21
0.15
-0.15
-0.69
-1.32
-2.01
-2.87
-4.3
-6.8
-10.82
-16.4
-22.92
-29.02
-32.85
-32.65
-27.37
-17.22
-3.66
11.07
24.61
35.2
42.01
45.04
44.86
42.15
37.54
31.57
24.78
17.79
11.27
5.88
2.11
0.08
-0.44
-0.01
0.75
1.27
1.21
0.43
-1.16
-3.69
-7.37
-12.2
-17.78
-23.11
-26.77
-27.36
-24.02
-16.83
-6.81
4.41
15.09
23.86
29.93
33.0
33.21
30.9
26.65
21.17
15.34
10.0
5.73
2.77
0.99
0.04
-0.44
-0.68
-0.81
-0.91
-1.17
-1.94
-3.69
-6.94
-11.99
-18.82
-26.83
-34.88
-41.41
-44.86
-44.07
-38.7
-29.33
-17.36
-4.62
7.13
16.48
22.61
25.26
24.64
21.28
15.94
9.47
2.66
-3.8
-9.4
-13.76
-16.66
-18.1
-18.31
-17.78
-17.21
-17.36
-18.82
-21.94
-26.69
-32.61
-38.82
-44.04
-46.76
-45.64
-39.91
-29.8
-16.53
-2.02
11.64
22.77
30.44
34.37
34.8
32.18
27.1
20.36
13.03
6.37
1.57
-0.56
0.14
3.22
7.78
12.71
17.0
19.8
20.51
18.73
14.32
7.51
-0.95
-9.75
-17.1
-21.15
-20.48
-14.62
-4.24
8.95
22.73
35.06
44.47
50.35
52.79
52.29
49.45
44.93
39.41
33.67
28.47
24.47
22.01
21.05
21.25
22.15
23.37
24.61
25.54
25.58
23.88
19.49
11.78
0.93
-11.81
-24.32
-34.13
-39.24
-38.69
-32.9
-23.42
-12.44
-2.19
5.63
10.04
10.83
8.31
3.21
-3.56
-10.97
-17.98
-23.69
-27.48
-29.13
-28.86
-27.22
-24.9
-22.56
-20.72
-19.68
-19.67
-20.87
-23.51
-27.62
-32.89
-38.43
-42.89
-44.69
-42.58
-36.09
-25.82
-13.24
-0.27
11.23
19.92
25.15
26.88
25.49
21.69
16.31
10.35
4.76
0.34
-2.43
-3.45
-3.06
-1.8
-0.33
0.8
1.22
0.73
-0.76
-3.34
-7.09
-12.0
-17.82
-23.83
-28.85
-31.46
-30.49
-25.47
-16.89
-6.18
4.79
14.24
20.97
24.51
24.99
22.95
18.97
13.74
7.95
2.4
-2.16
-5.12
-6.23
-5.72
-4.17
-2.37
-0.99
-0.5
-1.08
-2.74
-5.46
-9.25
-14.05
-19.56
-25.09
-29.52
-31.58
-30.21
-25.05
-16.62
-6.19
4.54
14.0
21.02
25.02
25.93
24.03
19.86
14.16
7.82
1.81
-3.05
-6.22
-7.58
-7.41
-6.25
-4.74
-3.45
-2.8
-3.09
-4.52
-7.19
-11.1
-15.97
-21.19
-25.79
-28.62
-28.62
-25.19
-18.36
-8.91
1.85
12.35
21.14
27.19
29.97
29.54
26.38
21.33
15.3
9.19
3.68
-0.72
-3.76
-5.34
-5.63
-4.9
-3.62
-2.36
-1.72
-2.3
-4.6
-8.91
-15.12
-22.59
-30.12
-36.05
-38.65
-36.63
-29.54
-18.11
-4.02
10.5
23.26
32.56
37.52
38.0
34.53
28.08
19.92
11.43
3.95
-1.42
-4.07
-3.97
-1.76
1.51
4.67
6.7
7.01
5.45
2.18
-2.47
-8.16
-14.54
-21.11
-27.1
-31.49
-33.22
-31.53
-26.3
-18.19
-8.44
1.44
10.11
16.6
20.45
21.6
20.31
17.05
12.5
7.5
2.89
-0.64
-2.65
-3.15
-2.47
-1.13
0.28
1.25
1.47
0.74
-1.02
-3.85
-7.74
-12.57
-17.97
-23.22
-27.28
-29.03
-27.66
-22.99
-15.63
-6.86
1.78
8.94
13.81
16.14
16.13
14.22
10.86
6.56
1.94
-2.35
-5.59
-7.34
-7.48
-6.34
-4.54
-2.74
-1.47
-1.02
-1.44
-2.66
-4.62
-7.37
-10.95
-15.32
-20.11
-24.64
-27.91
-28.92
-26.98
-22.06
-14.79
-6.43
1.63
8.2
12.6
14.73
14.87
13.46
10.93
7.66
4.05
0.59
-2.2
-3.87
-4.28
-3.65
-2.51
-1.48
-1.06
-1.46
-2.64
-4.48
-6.95
-10.19
-14.35
-19.33
-24.51
-28.81
-30.91
-29.76
-24.95
-16.97
-7.0
3.36
12.69
19.92
24.55
26.46
25.85
23.05
18.59
13.25
7.99
3.8
1.45
1.26
2.98
5.95
9.25
12.04
13.71
13.9
12.46
9.33
4.54
-1.77
-9.2
-16.97
-23.9
-28.59
-29.86
-27.09
-20.56
-11.36
-1.09
8.6
16.44
21.73
24.29
24.31
22.21
18.52
13.83
8.76
3.84
-0.51
-4.02
-6.56
-8.03
-8.43
-7.79
-6.3
-4.2
-1.85
0.43
2.24
3.11
2.55
0.2
-3.87
-8.95
-13.65
-16.27
-15.38
-10.36
-1.75
8.97
19.88
29.29
36.16
40.21
41.73
41.21
39.17
36.12
32.65
29.52
27.52
27.18
28.53
31.01
33.62
35.42
35.93
35.3
34.14
33.01
31.98
30.45
27.39
21.96
14.11
4.78
-4.34
-11.41
-15.15
-15.21
-12.16
-7.06
-1.07
4.97
10.43
14.89
17.9
19.03
18.03
15.02
10.68
6.02
2.21
0.15
0.19
1.98
4.6
6.89
7.82
6.76
3.71
-0.83
-6.11
-11.32
-15.84
-19.22
-21.25
-21.72
-20.42
-17.1
-11.6
-4.01
5.19
15.02
24.26
31.62
36.22
37.8
36.73
33.83
30.01
25.91
21.73
17.4
12.75
7.71
2.42
-2.91
-8.12
-13.26
-18.53
-24.19
-30.37
-36.99
-43.76
-50.31
-56.22
-61.03
-64.19
-65.08
-63.12
-58.0
-49.92
-39.6
-28.09
-16.56
-5.9
3.33
10.86
16.54
20.23
21.82
21.39
19.36
16.49
13.66
11.67
10.98
11.59
13.16
15.13
16.93
18.14
18.47
17.84
16.21
13.53
9.76
5.0
-0.32
-5.44
-9.36
-11.23
-10.66
-7.93
-3.9
0.34
3.87
6.17
7.1
6.82
5.6
3.77
1.72
-0.05
-1.05
-0.99
0.15
2.08
4.37
6.68
8.92
11.14
13.45
15.8
17.86
19.12
19.02
17.13
13.27
7.53
0.31
-7.71
-15.53
-21.99
-25.89
-26.3
-22.89
-16.03
-6.82
3.27
12.67
20.12
24.88
26.76
26.0
23.24
19.3
15.15
11.64
9.39
8.57
8.82
9.34
9.14
7.45
3.91
-1.27
-7.44
-13.65
-18.92
-22.3
-22.92
-20.1
-13.43
-2.77
11.66
29.37
49.53
70.79
91.23
108.43
119.93
124.04
120.43
110.42
96.52
81.53
67.39
54.56
42.2
29.04
14.48
-0.78
-14.94
-26.02
-32.96
-36.14
-37.22
-38.25
-40.74
-45.08
-50.7
-56.57
-61.8
-65.89
-68.54
-69.43
-68.04
-63.92
-57.02
-48.01
-38.15
-28.99
-21.96
-17.9
-16.95
-18.57
-21.75
-25.28
-28.04
-29.3
-28.82
-26.87
-24.04
-21.03
-18.31
-16.08
-14.22
-12.44
-10.44
-8.0
-5.06
-1.66
2.13
6.21
10.52
15.03
19.74
24.61
29.6
34.62
39.55
44.34
49.11
54.17
59.94
66.74
74.61
83.21
91.97
100.24
107.48
113.33
117.57
120.01
120.47
118.86
115.24
109.72
102.21
92.15
78.69
61.13
39.58
15.36
-9.1
-31.03
-48.13
-59.25
-64.42
-64.35
-59.91
-51.71
-40.29
-26.41
-11.36
3.12
15.17
23.42
27.26
26.93
23.43
18.11
12.47
7.79
5.13
5.28
8.88
16.25
27.37
41.48
57.08
72.09
84.42
92.76
97.06
98.45
98.59
98.78
99.44
100.16
100.23
99.2
97.06
93.98
90.01
84.91
78.35
70.27
60.92
50.64
39.29
26.19
10.31
-8.95
-31.11
-54.43
-76.31
-94.15
-106.01
-111.0
-109.2
-101.34
-88.62
-72.49
-54.67
-36.96
-21.14
-8.61
-0.13
4.32
5.48
4.49
2.46
0.1
-2.38
-5.02
-7.75
-10.12
-11.47
-11.42
-10.44
-10.03
-12.27
-18.83
-30.04
-44.52
-59.62
-72.54
-81.46
-86.15
-87.76
-88.04
-88.38
-89.35
-90.72
-92.06
-93.24
-94.65
-96.95
-100.54
-105.2
-110.1
-114.21
-116.78
-117.57
-116.79
-114.72
-111.33
-106.31
-99.32
-90.42
-80.27
-69.96
-60.57
-52.72
-46.34
-40.83
-35.48
-29.94
-24.36
-19.3
-15.4
-13.03
-12.03
-11.75
-11.27
-9.75
-6.69
-2.06
3.86
10.61
17.68
24.55
30.66
35.56
39.14
41.96
45.34
51.0
60.41
73.9
90.26
106.91
120.6
128.47
128.92
121.93
108.93
92.26
74.55
58.17
44.91
35.69
30.57
28.77
28.9
29.36
28.68
25.85
20.38
12.31
2.03
-9.75
-22.14
-34.13
-44.84
-53.67
-60.49
-65.62
-69.5
-72.45
-74.29
-74.48
-72.38
-67.78
-61.22
-54.0
-47.58
-42.97
-40.16
-38.17
-35.64
-31.6
-25.96
-19.55
-13.52
-8.77
-5.7
-4.42
-5.21
-8.81
-16.28
-28.41
-45.09
-65.14
-86.59
-107.53
-126.67
-143.55
-158.17
-170.39
-179.5
-184.41
-184.23
-178.91
-169.62
-158.44
-147.75
-139.39
-134.1
-131.51
-130.57
-130.11
-129.3
-127.82
-125.68
-123.03
-119.94
-116.38
-112.26
-107.61
-102.55
-97.33
-92.24
-87.55
-83.5
-80.37
-78.4
-77.7
-78.03
-78.58
-78.01
-74.79
-67.75
-56.57
-42.05
-25.89
-10.21
3.16
13.13
19.56
23.17
25.2
26.99
29.61
33.63
38.98
45.15
51.41
57.18
62.29
67.03
71.94
77.47
83.7
90.31
96.79
102.92
109.15
116.77
127.71
144.16
168.03
200.28
240.47
286.44
334.38
379.27
415.79
439.51
447.85
440.72
420.37
390.67
356.06
320.79
288.42
261.77
242.78
232.36
230.0
233.52
239.32
243.22
241.78
233.2
217.8
197.4
174.3
150.11
125.38
99.74
72.53
43.53
13.31
-16.88
-45.49
-71.23
-93.62
-113.17
-131.39
-150.19
-171.21
-195.15
-221.26
-247.7
-272.18
-292.97
-309.5
-322.44
-333.11
-342.73
-351.8
-360.07
-366.93
-371.9
-374.99
-376.64
-377.38
-377.46
-376.53
-373.7
-367.75
-357.43
-341.86
-320.81
-294.76
-264.86
-232.71
-199.96
-168.15
-138.52
-112.06
-89.47
-71.19
-57.24
-47.14
-39.83
-33.9
-27.9
-20.7
-11.8
-1.37
9.88
20.92
30.74
38.65
44.37
48.0
49.71
49.51
47.18
42.57
36.11
29.13
23.84
22.62
27.17
37.6
52.33
68.55
83.26
94.18
100.31
101.83
99.7
95.2
89.58
84.09
79.95
78.23
79.66
84.36
91.67
100.25
108.47
114.83
118.55
119.83
119.89
120.64
124.03
131.36
142.86
157.55
173.68
189.25
202.61
212.68
219.0
221.57
220.75
217.23
211.8
205.13
197.34
187.86
175.59
159.49
139.29
115.88
91.16
67.28
45.8
27.07
10.08
-6.9
-25.59
-46.78
-69.99
-93.5
-115.04
-132.72
-145.84
-155.25
-162.99
-171.48
-182.43
-196.3
-212.22
-228.36
-242.58
-252.87
-257.6
-255.67
-246.67
-231.07
-210.45
-187.29
-164.51
-144.74
-129.73
-119.97
-114.73
-112.38
-110.82
-108.02
-102.39
-93.22
-80.8
-66.3
-51.37
-37.52
-25.68
-15.93
-7.79
-0.74
5.19
9.29
10.45
7.87
1.75
-6.41
-14.04
-18.27
-16.88
-9.04
4.53
21.84
40.42
57.98
72.83
83.91
90.67
92.86
90.62
84.58
75.95
66.36
57.51
50.69
46.47
44.61
44.33
44.66
44.82
44.41
43.36
41.73
39.47
36.34
31.86
25.52
17.01
6.5
-5.2
-16.64
-25.98
-31.38
-31.47
-25.85
-15.2
-1.19
13.98
28.1
39.43
46.9
50.19
49.55
45.62
39.37
31.93
24.46
18.0
13.3
10.63
9.88
10.59
12.11
13.8
15.06
15.5
14.92
13.33
10.81
7.39
2.92
-2.86
-10.19
-18.87
-28.01
-35.98
-40.72
-40.37
-34.0
-21.98
-6.06
11.16
26.96
39.26
47.09
50.81
51.81
52.04
53.29
56.6
61.94
68.44
75.01
81.08
87.26
95.3
107.57
126.35
153.34
189.25
233.51
283.89
336.26
385.01
424.18
449.36
459.37
456.93
447.78
438.39
433.61
435.1
441.2
448.13
451.71
448.75
437.61
418.22
391.69
359.84
324.86
288.85
253.49
219.79
188.03
157.66
127.52
96.18
62.27
24.85
-16.29
-60.6
-106.95
-154.14
-201.38
-248.56
-296.18
-344.81
-394.26
-442.93
-487.67
-524.28
-548.67
-558.1
-552.0
-532.17
-502.15
-466.22
-428.49
-392.25
-359.76
-332.33
-310.36
-293.46
-280.51
-269.89
-259.91
-249.22
-237.18
-223.92
-210.14
-196.76
-184.55
-173.96
-165.0
-157.44
-150.93
-145.21
-140.24
-136.28
-133.86
-133.53
-135.5
-139.2
-143.1
-144.8
-141.63
-131.44
-113.29
-87.82
-57.02
-23.6
9.91
41.78
71.28
98.46
123.76
147.65
170.61
193.02
215.17
237.16
258.74
279.4
298.63
316.19
332.15
346.46
358.35
365.82
365.82
355.02
331.11
293.66
244.34
186.23
122.84
57.4
-7.37
-69.07
-125.31
-173.64
-212.0
-239.21
-255.42
-262.07
-261.53
-256.33
-248.48
-239.11
-228.7
-217.68
-206.89
-197.63
-191.13
-187.71
-186.27
-184.49
-179.78
-170.5
-156.83
-140.68
-124.74
-111.13
-100.42
-91.4
-81.72
-69.03
-52.02
-30.87
-7.2
16.64
38.46
56.97
72.1
84.75
96.28
107.9
120.24
133.13
145.68
156.46
163.8
166.15
162.49
152.65
137.32
117.95
96.36
74.3
53.19
33.9
16.71
1.46
-12.27
-25.01
-37.15
-48.72
-59.35
-68.32
-74.79
-78.12
-78.12
-75.19
-70.29
-64.57
-59.08
-54.37
-50.37
-46.32
-40.96
-32.82
-20.56
-3.3
19.3
47.04
79.31
114.99
152.12
187.69
217.71
237.9
245.03
238.11
218.89
191.49
161.06
132.29
108.47
91.29
81.22
77.77
79.63
84.6
89.86
92.75
91.52
85.76
76.11
63.58
49.12
33.66
18.51
5.52
-3.45
-7.42
-7.05
-4.59
-2.85
-3.88
-8.08
-14.35
-21.08
-27.23
-32.84
-38.64
-45.47
-53.59
-62.66
-72.04
-81.22
-89.82
-97.47
-103.55
-107.14
-107.29
-103.47
-95.93
-85.82
-74.9
-65.06
-57.75
-53.69
-53.03
-55.48
-60.67
-68.11
-76.92
-85.53
-91.52
-92.11
-84.93
-69.05
-45.62
-17.78
10.19
34.09
51.01
59.82
61.08
56.35
47.55
36.47
24.74
13.8
4.94
-0.81
-2.95
-1.67
2.12
7.02
11.49
14.25
14.62
12.6
8.76
3.89
-1.3
-6.4
-11.21
-15.51
-18.75
-20.07
-18.42
-13.07
-4.01
7.88
21.03
33.7
44.51
52.92
59.2
64.17
68.62
72.9
76.76
79.49
80.39
79.21
76.35
72.79
69.6
67.54
66.77
66.83
66.9
66.21
64.22
60.73
55.71
49.2
41.24
32.1
22.44
13.36
6.23
2.23
1.93
5.13
10.91
17.96
25.06
31.18
35.59
37.68
36.82
32.43
24.13
11.86
-4.02
-22.87
-43.92
-66.44
-89.82
-113.59
-137.37
-160.84
-183.6
-205.13
-224.55
-240.58
-251.7
-256.5
-254.23
-245.31
-231.34
-214.67
-197.34
-180.07
-161.83
-140.2
-112.64
-77.86
-36.58
8.76
55.11
99.79
140.83
176.53
204.86
223.39
230.2
225.23
211.05
192.43
174.49
160.58
150.99
143.32
134.17
121.04
103.46
82.79
60.97
39.32
18.02
-3.35
-24.9
-45.67
-63.42
-75.37
-79.41
-74.99
-63.48
-47.72
-30.96
-15.9
-3.95
4.71
10.64
14.53
16.74
17.29
16.05
13.13
9.0
4.44
0.27
-2.92
-4.99
-6.2
-6.95
-7.7
-8.68
-9.96
-11.59
-13.71
-16.7
-20.94
-26.58
-33.25
-39.78
-44.41
-45.27
-41.01
-31.36
-17.35
-0.99
15.34
29.59
40.5
47.68
51.34
51.96
50.12
46.36
41.26
35.52
29.82
24.73
20.53
17.2
14.46
11.99
9.51
6.85
3.93
0.69
-2.94
-7.14
-12.16
-18.33
-25.85
-34.54
-43.54
-51.25
-55.69
-55.11
-48.7
-37.05
-21.97
-5.86
9.1
21.6
31.24
38.2
42.72
44.77
44.22
41.11
36.02
30.08
24.58
20.47
18.0
16.65
15.5
13.67
10.73
6.81
2.43
-1.87
-5.8
-9.49
-13.41
-18.18
-24.3
-31.88
-40.54
-49.38
-57.08
-62.18
-63.39
-59.98
-52.01
-40.3
-26.35
-11.83
1.71
13.19
22.08
28.3
31.99
33.46
32.99
30.93
27.7
23.84
19.92
16.47
13.77
11.75
9.96
7.8
4.78
0.86
-3.54
-7.66
-10.86
-13.0
-14.56
-16.45
-19.56
-24.41
-30.87
-38.29
-45.73
-52.11
-56.37
-57.47
-54.58
-47.28
-35.87
-21.42
-5.64
9.6
22.74
32.84
39.56
43.07
43.72
41.99
38.44
33.83
29.06
25.02
22.36
21.19
21.12
21.38
21.19
20.06
17.94
15.11
12.04
8.99
5.96
2.7
-1.15
-5.88
-11.5
-17.73
-23.98
-29.28
-32.48
-32.42
-28.22
-19.65
-7.25
7.68
23.44
38.33
50.96
60.44
66.25
68.13
65.98
59.9
50.34
38.09
24.24
9.96
-3.75
-16.31
-27.5
-37.37
-45.98
-53.23
-58.81
-62.33
-63.61
-62.86
-60.75
-58.27
-56.47
-56.12
-57.55
-60.53
-64.27
-67.55
-68.86
-66.8
-60.44
-49.64
-35.28
-19.04
-2.89
11.5
23.12
31.74
37.62
41.1
42.37
41.49
38.67
34.44
29.72
25.56
22.67
21.2
20.6
19.94
18.34
15.42
11.39
6.92
2.7
-0.89
-4.03
-7.31
-11.47
-17.09
-24.29
-32.69
-41.46
-49.4
-55.21
-57.66
-55.95
-49.86
-39.95
-27.36
-13.63
-0.27
11.48
20.83
27.47
31.39
32.87
32.28
30.1
26.9
23.24
19.69
16.72
14.64
13.53
13.17
13.09
12.63
11.21
8.58
4.97
1.02
-2.48
-5.0
-6.61
-7.92
-9.92
-13.52
-19.23
-26.86
-35.52
-43.72
-49.65
-51.5
-47.96
-38.6
-24.05
-6.0
13.29
31.59
47.05
58.54
65.52
67.95
66.21
61.13
54.01
46.38
39.71
34.9
32.08
30.63
29.61
28.07
25.49
21.79
17.23
12.19
6.99
1.82
-3.29
-8.45
-13.85
-19.76
-26.49
-34.22
-42.93
-52.17
-61.03
-68.2
-72.28
-72.17
-67.45
-58.51
-46.52
-32.99
-19.39
-6.84
3.97
12.66
18.88
22.33
22.83
20.58
16.35
11.33
6.87
3.98
3.02
3.62
4.91
5.95
6.04
4.94
2.86
0.2
-2.66
-5.59
-8.74
-12.5
-17.26
-23.31
-30.6
-38.7
-46.76
-53.63
-58.04
-58.86
-55.44
-47.79
-36.68
-23.44
-9.74
2.93
13.45
21.25
26.13
28.22
27.79
25.3
21.43
17.09
13.23
10.61
9.47
9.47
9.87
9.79
8.61
6.19
2.77
-1.21
-5.39
-9.65
-14.12
-19.07
-24.79
-31.44
-38.93
-46.81
-54.21
-59.83
-62.26
-60.36
-53.64
-42.55
-28.36
-12.8
2.43
16.04
27.27
35.73
41.26
43.8
43.49
40.79
36.63
32.28
28.97
27.53
28.1
30.11
32.56
34.39
34.87
33.82
31.55
28.62
25.59
22.72
19.94
16.79
12.67
6.95
-0.65
-9.83
-19.54
-28.1
-33.58
-34.37
-29.74
-20.14
-7.01
7.66
21.98
34.54
44.55
51.58
55.38
55.74
52.73
46.86
39.22
31.25
24.36
19.46
16.66
15.33
14.42
12.94
10.33
6.61
2.22
-2.29
-6.54
-10.54
-14.65
-19.47
-25.65
-33.64
-43.44
-54.46
-65.41
-74.42
-79.43
-78.89
-72.21
-60.1
-44.33
-27.21
-10.91
3.04
13.77
20.95
24.49
24.55
21.54
16.29
10.02
4.07
-0.55
-3.46
-5.04
-6.17
-7.77
-10.41
-14.04
-18.15
-22.12
-25.55
-28.54
-31.64
-35.62
-41.19
-48.67
-57.79
-67.55
-76.33
-82.15
-83.18
-78.28
-67.43
-51.84
-33.5
-14.59
3.19
18.91
32.32
43.54
52.58
59.44
64.24
67.56
70.59
74.8
81.38
90.56
101.36
111.75
119.34
122.17
119.36
111.24
99.02
84.23
68.06
51.09
33.34
14.9
-3.54
-20.33
-33.01
-39.07
-36.93
-26.64
-10.11
9.52
28.96
45.81
59.12
69.19
76.78
82.17
84.71
83.17
76.31
63.86
46.82
27.06
6.68
-12.33
-28.07
-38.65
-42.61
-39.91
-32.83
-25.95
-24.53
-32.17
-48.87
-70.79
-92.16
-108.05
-116.59
-119.27
-119.35
-119.49
-119.91
-118.07
-109.89
-91.61
-61.75
-22.13
22.08
63.5
94.77
111.01
111.19
98.14
77.03
53.06
29.84
9.09
-8.49
-21.98
-29.82
-30.51
-23.74
-11.28
3.18
15.3
21.49
20.1
11.63
-1.67
-16.64
-29.95
-38.72
-40.91
-35.73
-23.76
-6.69
13.14
33.45
52.31
68.23
79.84
85.83
85.18
77.67
64.28
47.12
28.92
12.21
-1.36
-11.17
-17.48
-21.0
-22.45
-22.43
-21.45
-20.08
-19.03
-19.2
-21.47
-26.46
-34.1
-43.49
-52.81
-59.73
-62.08
-58.52
-49.1
-35.25
-19.27
-3.62
9.81
20.03
26.92
30.85
32.35
31.8
29.53
25.94
21.63
17.35
13.87
11.74
11.05
11.48
12.43
13.2
13.18
11.93
9.12
4.5
-1.92
-9.8
-18.12
-25.31
-29.44
-28.86
-22.75
-11.56
3.04
18.62
32.76
43.71
50.71
53.91
53.95
51.57
47.37
41.82
35.44
28.95
23.21
19.0
16.76
16.41
17.42
18.94
20.1
20.18
18.68
15.32
10.07
3.34
-3.9
-10.13
-13.51
-12.42
-6.0
5.37
20.19
36.1
50.64
61.87
68.85
71.68
71.21
68.43
64.07
58.34
51.21
42.7
33.26
23.69
14.82
7.09
0.35
-6.05
-12.79
-20.27
-28.49
-37.32
-46.63
-56.35
-66.07
-74.74
-80.59
-81.6
-76.31
-64.49
-47.42
-27.57
-7.89
9.04
21.53
29.0
31.82
31.03
27.93
23.77
19.52
15.75
12.73
10.5
9.08
8.5
8.74
9.69
10.98
12.03
12.11
10.58
7.07
1.68
-4.94
-11.61
-16.75
-18.79
-16.52
-9.49
1.79
15.96
31.21
45.74
58.25
68.15
75.54
80.98
85.04
88.04
89.78
89.71
87.12
81.52
72.98
62.14
50.1
37.97
26.57
16.13
6.37
-3.15
-12.69
-22.08
-30.81
-38.19
-43.83
-47.68
-50.05
-51.28
-51.47
-50.34
-47.39
-42.31
-35.22
-26.86
-18.36
-10.88
-5.23
-1.86
-1.12
-3.58
-9.95
-20.57
-34.72
-50.34
-64.46
-74.32
-78.52
-77.52
-73.19
-67.69
-62.33
-57.21
-51.86
-46.17
-41.1
-38.38
-39.36
-43.97
-50.28
-55.19
-55.76
-50.42
-39.53
-24.95
-9.1
5.94
18.87
28.94
35.61
38.3
36.75
31.47
24.03
16.78
11.95
10.57
11.97
14.1
14.6
11.96
6.1
-1.82
-10.22
-18.01
-24.94
-31.51
-38.41
-46.05
-54.39
-62.88
-70.47
-75.54
-76.06
-70.13
-56.76
-36.68
-12.43
12.36
34.31
51.52
64.14
73.71
82.03
89.92
96.9
101.63
103.02
101.03
96.76
91.84
87.38
83.42
78.81
71.86
61.25
46.78
29.6
11.83
-4.19
-16.77
-25.3
-30.32
-33.07
-34.83
-36.39
-37.93
-39.13
-39.56
-38.81
-36.54
-32.32
-25.73
-16.7
-5.91
5.06
14.07
19.19
19.54
15.61
8.89
1.01
-7.01
-15.14
-24.02
-34.32
-46.16
-58.96
-71.65
-83.19
-92.88
-100.45
-105.86
-109.0
-109.49
-106.77
-100.27
-89.73
-75.29
-57.44
-36.79
-13.88
10.8
36.56
62.1
85.34
103.55
114.04
114.99
106.16
89.05
66.49
41.67
17.28
-5.19
-25.47
-44.11
-61.65
-77.95
-91.83
-101.32
-104.45
-100.18
-89.04
-73.18
-55.72
-39.66
-27.01
-18.35
-12.86
-8.87
-4.28
2.89
14.1
29.82
49.09
69.44
87.41
99.57
103.75
99.72
89.28
75.54
61.97
51.51
46.15
46.77
53.23
64.34
77.87
90.75
99.61
101.72
95.89
82.95
65.45
46.6
28.89
13.1
-1.77
-17.66
-35.9
-56.1
-75.69
-90.79
-97.65
-94.15
-80.46
-58.87
-32.83
-5.87
19.16
40.34
56.44
66.63
70.31
67.24
57.76
43.02
24.97
6.08
-11.27
-25.34
-35.52
-42.45
-47.77
-53.52
-61.46
-72.55
-86.8
-103.3
-120.45
-136.15
-147.82
-152.48
-147.02
-128.9
-97.27
-53.95
-3.85
45.78
87.16
114.24
124.5
119.48
103.63
82.41
60.14
39.09
19.66
1.47
-15.41
-29.89
-40.25
-44.98
-43.63
-37.21
-27.95
-18.55
-11.47
-8.45
-10.35
-17.25
-28.63
-43.32
-59.5
-74.71
-86.18
-91.41
-89.01
-79.11
-63.48
-44.94
-26.56
-10.82
0.86
8.16
11.68
12.47
11.67
10.26
8.85
7.74
6.97
6.56
6.55
7.06
8.1
9.47
10.68
11.1
10.12
7.36
2.72
-3.65
-11.29
-19.34
-26.47
-30.93
-30.96
-25.33
-13.8
2.55
21.66
41.03
58.34
71.95
81.11
85.91
87.08
85.77
83.31
81.0
79.76
79.98
81.37
83.19
84.58
85.0
84.6
84.09
84.47
86.45
90.03
94.31
97.82
99.06
97.21
92.69
87.39
84.5
87.98
101.6
127.5
164.77
208.63
250.92
282.08
294.04
283.0
250.66
203.43
149.84
97.6
51.4
12.43
-20.62
-49.78
-76.52
-101.31
-124.01
-144.44
-162.5
-177.96
-190.18
-198.17
-201.19
-199.49
-194.58
-188.63
-183.11
-177.56
-169.32
-154.51
-130.01
-95.24
-52.8
-7.57
35.31
72.21
102.06
125.83
145.43
162.37
177.05
188.69
195.9
197.28
191.97
179.89
161.72
138.88
113.13
86.32
59.93
34.76
10.94
-11.86
-33.95
-55.29
-75.32
-93.17
-107.94
-119.0
-126.07
-129.22
-128.71
-124.98
-118.81
-111.37
-104.18
-98.72
-95.92
-95.79
-97.5
-99.83
-101.79
-103.05
-103.94
-105.08
-106.92
-109.5
-112.48
-115.43
-118.13
-120.69
-123.55
-127.29
-132.59
-140.01
-149.83
-161.68
-174.29
-185.55
-192.95
-194.36
-188.7
-176.28
-158.55
-137.53
-115.08
-92.54
-70.63
-49.7
-29.98
-11.71
4.89
19.67
32.57
43.52
52.32
58.69
62.46
63.71
63.04
61.57
60.65
61.43
64.42
69.28
74.87
79.6
81.96
80.83
75.97
68.01
58.47
49.61
43.86
43.21
48.4
58.49
70.95
82.63
90.91
94.63
94.35
91.64
88.07
84.39
80.28
74.97
67.95
59.53
50.68
42.51
35.68
30.1
25.1
19.98
14.28
8.13
1.94
-3.8
-8.92
-13.65
-18.55
-24.11
-30.36
-36.65
-41.61
-43.76
-42.09
-36.67
-28.65
-19.9
-12.25
-6.87
-4.04
-3.32
-4.04
-5.65
-7.94
-10.89
-14.45
-18.43
-22.44
-26.07
-29.0
-31.08
-32.38
-33.01
-33.14
-32.85
-32.28
-31.64
-31.34
-32.0
-34.25
-38.45
-44.29
-50.79
-56.31
-59.09
-57.78
-51.98
-42.37
-30.53
-18.42
-7.82
0.13
5.05
7.2
7.15
5.5
2.71
-0.88
-4.95
-9.09
-12.94
-16.17
-18.68
-20.65
-22.37
-24.22
-26.45
-29.23
-32.6
-36.64
-41.43
-47.04
-53.34
-59.9
-65.85
-70.06
-71.37
-68.9
-62.42
-52.37
-39.8
-26.11
-12.64
-0.5
9.64
17.51
23.16
26.86
28.99
29.97
30.18
29.94
29.52
29.26
29.58
30.8
33.15
36.4
39.94
42.86
44.36
44.15
42.5
40.09
37.49
34.89
32.04
28.69
25.0
21.7
19.8
19.91
21.72
24.0
25.25
24.4
21.44
17.22
12.86
8.93
5.33
1.5
-2.88
-7.39
-10.9
-12.01
-9.61
-3.46
5.8
16.84
28.07
37.97
45.42
49.78
50.88
48.86
44.0
36.67
27.44
17.17
7.17
-0.93
-5.63
-6.03
-2.29
4.4
12.26
19.49
24.81
27.73
28.33
26.99
24.04
19.64
13.85
6.81
-1.01
-8.89
-15.94
-21.46
-25.25
-27.61
-29.19
-30.71
-32.64
-35.14
-38.19
-41.81
-46.14
-51.33
-57.2
-62.93
-67.13
-68.14
-64.63
-56.23
-43.61
-28.36
-12.45
2.31
14.6
23.65
29.2
31.36
30.57
27.68
23.82
20.17
17.64
16.53
16.43
16.5
15.87
13.99
10.88
6.88
2.41
-2.44
-8.0
-14.86
-23.46
-33.66
-44.53
-54.43
-61.49
-64.15
-61.64
-54.2
-42.91
-29.34
-15.19
-1.88
9.5
18.29
24.14
27.04
27.26
25.38
22.17
18.55
15.33
13.08
12.02
11.95
12.33
12.52
11.96
10.31
7.43
3.27
-2.28
-9.4
-18.07
-27.74
-37.13
-44.33
-47.34
-44.74
-36.32
-23.16
-7.33
8.84
23.37
35.03
43.32
48.3
50.29
49.77
47.42
44.08
40.73
38.23
37.12
37.39
38.52
39.67
40.08
39.32
37.44
34.82
31.99
29.19
26.3
22.86
18.43
13.0
7.24
2.49
0.33
1.99
7.89
17.3
28.69
40.14
49.95
57.06
61.06
62.14
60.7
57.25
52.32
46.36
39.87
33.31
27.11
21.61
17.03
13.49
10.91
9.11
7.76
6.46
4.75
2.2
-1.62
-7.06
-14.28
-23.03
-32.45
-41.03
-46.88
-48.24
-44.11
-34.69
-21.34
-6.2
8.44
20.79
29.81
35.26
37.46
37.05
34.8
31.51
27.94
24.7
22.15
20.35
19.05
17.9
16.56
14.83
12.71
10.36
8.0
5.78
3.61
1.06
-2.53
-7.84
-15.13
-23.94
-32.94
-40.15
-43.56
-41.81
-34.75
-23.5
-10.12
3.17
14.6
23.24
28.94
31.99
32.81
31.74
29.14
25.51
21.59
18.16
15.81
14.63
14.17
13.7
12.54
10.42
7.5
4.28
1.18
-1.61
-4.3
-7.33
-11.19
-16.22
-22.48
-29.68
-37.1
-43.6
-47.76
-48.24
-44.25
-35.92
-24.38
-11.4
1.14
11.84
20.01
25.65
29.07
30.56
30.32
28.53
25.52
21.85
18.27
15.43
13.64
12.76
12.24
11.49
10.06
7.88
5.13
2.22
-0.52
-2.98
-5.28
-7.8
-11.03
-15.39
-21.05
-27.78
-34.81
-40.89
-44.57
-44.58
-40.25
-31.77
-20.18
-7.09
5.75
16.76
24.83
29.43
30.62
28.91
25.21
20.62
16.2
12.78
10.73
9.94
9.93
10.05
9.74
8.67
6.85
4.45
1.75
-1.09
-4.05
-7.23
-10.89
-15.25
-20.49
-26.59
-33.24
-39.7
-44.85
-47.42
-46.33
-41.14
-32.21
-20.79
-8.53
2.94
12.45
19.46
23.96
26.21
26.54
25.24
22.68
19.37
15.95
13.06
11.06
9.89
9.11
8.12
6.5
4.15
1.33
-1.54
-4.16
-6.48
-8.72
-11.31
-14.71
-19.33
-25.31
-32.35
-39.58
-45.66
-49.04
-48.54
-43.75
-35.24
-24.36
-12.73
-1.71
7.87
15.76
21.96
26.51
29.3
30.21
29.31
27.01
24.02
21.18
19.13
18.1
17.85
17.83
17.41
16.17
14.05
11.27
8.28
5.43
2.88
0.46
-2.19
-5.51
-9.9
-15.49
-22.17
-29.43
-36.38
-41.89
-44.76
-44.07
-39.5
-31.44
-20.94
-9.4
1.83
11.71
19.71
25.65
29.61
31.72
32.13
31.06
28.88
26.17
23.59
21.7
20.77
20.67
20.95
21.02
20.4
18.93
16.75
14.23
11.74
9.51
7.47
5.31
2.58
-1.18
-6.25
-12.63
-20.01
-27.7
-34.7
-39.86
-42.09
-40.65
-35.38
-26.83
-16.08
-4.46
6.76
16.64
24.61
30.36
33.73
34.71
33.43
30.34
26.19
21.92
18.42
16.24
15.43
15.56
15.89
15.75
14.72
12.75
10.14
7.25
4.32
1.33
-1.9
-5.69
-10.27
-15.67
-21.71
-27.96
-33.78
-38.38
-40.91
-40.61
-37.01
-30.1
-20.43
-9.03
2.86
13.99
23.4
30.47
34.99
37.02
36.87
35.0
32.02
28.61
25.44
23.03
21.63
21.15
21.13
21.0
20.16
18.3
15.41
11.76
7.71
3.5
-0.88
-5.64
-11.13
-17.62
-25.11
-33.18
-40.94
-47.18
-50.66
-50.57
-46.8
-40.01
-31.4
-22.22
-13.38
-5.28
2.0
8.38
13.57
17.04
18.35
17.47
14.9
11.53
8.31
5.85
4.32
3.51
3.04
2.57
1.97
1.24
0.43
-0.48
-1.65
-3.31
-5.74
-9.19
-13.74
-19.29
-25.43
-31.37
-36.02
-38.2
-36.97
-31.97
-23.6
-12.88
-1.11
10.55
21.32
30.74
38.47
44.12
47.2
47.44
44.99
40.64
35.52
30.76
27.06
24.44
22.43
20.36
17.71
14.32
10.34
6.12
1.99
-1.86
-5.44
-9.02
-13.02
-17.97
-24.27
-32.01
-40.7
-49.25
-56.1
-59.57
-58.4
-52.08
-41.08
-26.71
-10.68
5.28
19.86
32.2
41.85
48.53
52.1
52.63
50.56
46.82
42.63
39.15
37.02
36.16
35.86
35.18
33.45
30.57
27.0
23.46
20.54
18.38
16.68
14.77
11.95
7.66
1.69
-5.71
-13.84
-21.56
-27.48
-30.28
-29.06
-23.66
-14.82
-3.92
7.4
17.76
26.31
32.68
36.83
38.78
38.58
36.48
33.07
29.31
26.23
24.6
24.48
25.27
26.0
25.74
24.02
20.93
17.0
12.81
8.8
5.08
1.38
-2.8
-8.04
-14.72
-22.79
-31.62
-39.99
-46.42
-49.49
-48.41
-43.17
-34.55
-23.87
-12.53
-1.7
7.8
15.52
21.18
24.59
25.76
24.89
22.55
19.44
16.29
13.57
11.35
9.3
6.98
4.11
0.68
-2.96
-6.35
-9.2
-11.5
-13.65
-16.32
-20.2
-25.82
-33.23
-41.84
-50.47
-57.46
-61.13
-60.28
-54.59
-44.77
-32.22
-18.59
-5.17
7.32
18.69
28.96
37.93
45.17
50.07
52.25
51.7
48.95
44.87
40.45
36.59
33.93
32.81
33.11
34.35
35.73
36.4
35.81
33.86
30.93
27.58
24.24
20.99
17.54
13.6
9.16
4.73
1.31
0.09
2.04
7.59
16.47
27.84
40.57
53.54
65.84
76.85
86.08
93.09
97.33
98.28
95.54
89.07
79.36
67.5
54.98
43.33
33.76
26.77
22.21
19.49
18.04
17.55
17.89
18.84
19.76
19.61
17.25
11.97
3.76
-6.82
-18.88
-31.52
-43.81
-54.61
-62.51
-66.16
-64.82
-58.88
-49.87
-39.81
-30.38
-22.23
-15.05
-8.22
-1.57
4.38
8.66
10.5
9.62
6.19
0.48
-7.27
-16.67
-26.76
-35.82
-41.73
-42.72
-38.08
-28.47
-15.6
-1.57
11.62
22.23
28.72
29.7
24.27
12.33
-5.15
-26.35
-49.04
-71.09
-90.66
-106.35
-117.18
-122.64
-122.82
-118.2
-109.48
-97.3
-82.12
-64.41
-45.13
-25.92
-8.82
4.26
12.3
15.5
15.19
13.14
10.97
9.59
9.19
9.48
10.13
10.9
11.66
12.2
12.0
10.35
6.55
0.27
-8.19
-18.0
-28.07
-37.46
-45.65
-52.45
-57.81
-61.48
-63.03
-61.91
-57.82
-50.85
-41.47
-30.35
-18.17
-5.61
6.57
17.4
25.84
31.16
33.3
33.09
32.11
32.02
33.99
38.24
44.02
50.03
54.98
58.01
58.85
57.69
54.84
50.51
44.69
37.15
27.64
16.09
2.75
-11.63
-25.91
-38.66
-48.45
-54.22
-55.57
-52.85
-47.03
-39.31
-30.76
-22.06
-13.59
-5.59
1.54
7.2
10.72
11.68
10.13
6.67
2.28
-2.02
-5.51
-7.96
-9.64
-11.15
-13.12
-16.0
-19.89
-24.51
-29.42
-34.22
-38.68
-42.94
-47.39
-52.51
-58.55
-65.23
-71.58
-76.12
-77.24
-73.84
-65.79
-54.04
-40.24
-26.12
-12.97
-1.4
8.46
16.54
22.54
25.95
26.41
24.01
19.48
14.01
8.86
4.93
2.52
1.29
0.56
-0.38
-1.97
-4.28
-7.13
-10.32
-13.79
-17.65
-22.15
-27.44
-33.49
-39.98
-46.23
-51.33
-54.2
-53.87
-49.75
-41.87
-31.01
-18.5
-5.9
5.41
14.51
20.95
24.63
25.67
24.36
21.15
16.75
12.04
7.83
4.7
2.82
1.94
1.55
1.05
0.02
-1.72
-4.06
-6.72
-9.41
-12.07
-14.91
-18.39
-22.94
-28.66
-35.05
-40.96
-44.87
-45.42
-41.87
-34.39
-24.01
-12.25
-0.62
9.71
18.05
24.14
27.93
29.53
29.15
27.17
24.19
20.92
17.99
15.81
14.43
13.56
12.81
11.84
10.49
8.81
6.93
4.94
2.72
-0.04
-3.8
-8.95
-15.58
-23.22
-30.82
-36.93
-40.07
-39.16
-33.94
-25.05
-13.86
-2.04
8.91
17.92
24.51
28.6
30.34
29.98
27.91
24.64
20.83
17.22
14.34
12.41
11.2
10.21
8.92
6.98
4.38
1.33
-1.94
-5.31
-8.93
-13.15
-18.35
-24.76
-32.26
-40.23
-47.61
-53.05
-55.2
-53.22
-46.94
-37.01
-24.69
-11.53
1.1
12.16
21.07
27.56
31.6
33.27
32.86
30.84
27.93
24.91
22.46
20.89
20.07
19.52
18.61
16.89
14.29
11.03
7.56
4.2
1.03
-2.23
-6.14
-11.31
-18.15
-26.6
-35.98
-44.99
-51.98
-55.35
-53.99
-47.69
-37.22
-24.16
-10.32
2.67
13.86
22.92
29.96
35.19
38.61
40.09
39.53
37.18
33.71
30.08
27.17
25.38
24.52
23.95
22.89
20.84
17.77
14.05
10.23
6.72
3.55
0.41
-3.26
-8.04
-14.32
-22.2
-31.45
-41.4
-50.99
-58.78
-63.21
-62.99
-57.45
-46.96
-32.83
-17.02
-1.52
12.17
23.3
31.87
38.27
42.92
46.06
47.78
48.09
47.18
45.45
43.45
41.75
40.67
40.25
40.23
40.17
39.58
38.09
35.54
31.96
27.54
22.51
17.11
11.45
5.54
-0.68
-7.33
-14.59
-22.67
-31.72
-41.64
-51.78
-60.9
-67.28
-69.14
-65.33
-55.83
-41.88
-25.68
-9.65
4.25
14.98
22.42
26.99
29.27
29.69
28.49
25.91
22.37
18.54
15.19
12.98
12.17
12.53
13.45
14.18
14.1
12.93
10.76
7.88
4.59
1.08
-2.62
-6.56
-10.8
-15.4
-20.47
-26.18
-32.73
-40.03
-47.56
-54.14
-58.2
-58.17
-53.09
-42.98
-28.89
-12.65
3.72
18.47
30.44
39.1
44.42
46.7
46.45
44.3
40.98
37.25
33.86
31.38
30.18
30.27
31.29
32.6
33.36
32.88
30.72
26.85
21.6
15.5
9.07
2.66
-3.56
-9.63
-15.71
-22.08
-29.09
-37.1
-46.34
-56.55
-66.8
-75.41
-80.35
-79.81
-72.88
-59.97
-42.83
-23.92
-5.73
9.99
22.45
31.68
38.17
42.34
44.49
44.72
43.24
40.47
37.07
33.75
31.11
29.38
28.5
28.1
27.71
26.86
25.18
22.44
18.6
13.79
8.29
2.41
-3.6
-9.64
-15.8
-22.35
-29.67
-38.12
-47.91
-58.75
-69.76
-79.35
-85.47
-86.19
-80.3
-67.85
-50.25
-29.86
-9.31
9.24
24.48
36.03
44.11
49.2
51.8
52.35
51.28
49.15
46.55
44.09
42.16
40.92
40.27
39.93
39.62
39.03
37.89
35.95
32.97
28.74
23.18
16.46
8.92
1.05
-6.76
-14.3
-21.77
-29.65
-38.62
-49.2
-61.34
-74.11
-85.69
-93.65
-95.62
-90.03
-76.82
-57.49
-34.72
-11.57
9.39
26.59
39.61
48.77
54.65
57.82
58.64
57.45
54.76
51.27
47.81
45.17
43.77
43.62
44.3
45.11
45.29
44.25
41.66
37.58
32.29
26.23
19.76
13.09
6.21
-1.01
-8.79
-17.34
-26.88
-37.63
-49.61
-62.44
-75.03
-85.45
-91.24
-90.16
-81.09
-64.59
-42.92
-19.35
2.95
21.72
36.04
46.05
52.35
55.47
55.75
53.49
49.24
44.04
39.13
35.63
34.14
34.47
35.83
37.13
37.35
35.95
32.84
28.39
23.05
17.19
10.9
4.11
-3.32
-11.52
-20.51
-30.38
-41.17
-52.78
-64.62
-75.42
-83.25
-85.93
-81.76
-70.17
-52.08
-29.74
-6.06
16.13
34.72
48.64
57.67
62.23
63.04
60.88
56.57
51.01
45.19
40.13
36.68
35.26
35.7
37.25
38.82
39.31
37.97
34.59
29.46
23.15
16.23
9.04
1.69
-5.92
-14.0
-22.73
-32.4
-43.3
-55.63
-69.22
-83.13
-95.54
-103.93
-105.76
-99.36
-84.61
-63.17
-38.0
-12.47
10.59
29.53
43.94
54.2
61.0
64.91
66.31
65.52
63.02
59.58
56.07
53.31
51.74
51.35
51.72
52.13
51.86
50.28
47.03
41.95
35.2
27.11
18.2
8.97
-0.15
-8.97
-17.58
-26.39
-35.99
-46.96
-59.56
-73.34
-86.86
-97.81
-103.46
-101.48
-90.79
-72.06
-47.62
-20.78
5.14
27.65
45.49
58.42
66.9
71.57
73.11
72.23
69.74
66.57
63.57
61.29
59.88
59.06
58.39
57.42
55.94
53.86
51.19
47.82
43.5
37.95
30.97
22.65
13.47
4.07
-4.92
-13.19
-20.83
-28.39
-36.71
-46.62
-58.52
-72.05
-85.81
-97.46
-104.22
-103.69
-94.65
-77.62
-54.83
-29.54
-5.06
16.13
32.81
44.85
52.76
57.16
58.54
57.37
54.32
50.39
46.67
44.05
42.9
42.92
43.4
43.62
43.15
41.97
40.28
38.22
35.6
31.94
26.68
19.55
10.77
1.02
-8.75
-17.77
-25.71
-32.86
-40.0
-48.16
-58.1
-69.94
-82.81
-94.75
-103.14
-105.33
-99.57
-85.65
-65.11
-40.78
-15.92
6.68
25.24
39.11
48.34
53.31
54.47
52.35
47.68
41.52
35.15
29.85
26.52
25.51
26.51
28.66
30.82
31.86
30.98
27.92
22.97
16.8
10.19
3.69
-2.57
-8.77
-15.32
-22.64
-31.05
-40.73
-51.7
-63.54
-75.23
-85.01
-90.6
-89.83
-81.42
-65.58
-44.16
-20.1
3.43
23.85
39.7
50.6
56.87
59.17
58.24
54.93
50.18
45.07
40.58
37.41
35.75
35.32
35.53
35.81
35.68
34.93
33.38
30.88
27.14
21.89
15.06
6.87
-2.13
-11.22
-19.77
-27.51
-34.67
-41.92
-50.16
-60.25
-72.56
-86.61
-100.89
-112.93
-119.87
-119.28
-109.94
-92.44
-68.98
-42.75
-16.99
5.83
24.43
38.52
48.5
54.91
58.32
59.31
58.54
56.81
54.92
53.43
52.58
52.17
51.8
51.04
49.66
47.67
45.21
42.41
39.22
35.33
30.36
23.98
16.14
7.16
-2.41
-11.89
-20.79
-28.93
-36.64
-44.64
-53.83
-64.81
-77.35
-90.16
-100.82
-106.49
-104.75
-94.55
-76.64
-53.37
-27.96
-3.51
17.71
34.58
46.92
55.03
59.46
60.78
59.65
56.85
53.26
49.73
46.91
45.1
44.3
44.22
44.47
44.64
44.39
43.37
41.26
37.78
32.74
26.15
18.28
9.61
0.71
-7.92
-16.07
-23.92
-32.06
-41.28
-52.19
-64.75
-77.94
-89.72
-97.37
-98.24
-90.71
-74.79
-52.41
-26.9
-2.04
19.01
34.53
44.35
49.44
51.13
50.49
48.12
44.3
39.45
34.36
30.09
27.6
27.29
28.82
31.27
33.49
34.54
33.89
31.4
27.18
21.48
14.58
6.82
-1.44
-9.85
-18.22
-26.54
-35.08
-44.37
-54.99
-67.25
-80.77
-94.24
-105.35
-111.39
-109.99
-100.05
-82.22
-58.8
-33.04
-8.12
13.59
30.88
43.5
51.8
56.29
57.61
56.51
53.95
51.01
48.69
47.6
47.82
48.89
50.11
50.86
50.75
49.77
48.11
45.84
42.81
38.59
32.66
24.75
15.04
4.2
-6.79
-17.07
-26.18
-34.24
-41.94
-50.33
-60.37
-72.59
-86.55
-100.72
-112.58
-119.21
-118.18
-108.42
-90.67
-67.29
-41.56
-16.6
5.4
23.45
37.53
48.08
55.52
60.1
62.1
62.0
60.62
58.95
57.84
57.64
58.18
58.9
59.23
58.82
57.74
56.23
54.5
52.41
49.53
45.2
38.9
30.51
20.44
9.53
-1.23
-11.07
-19.62
-27.14
-34.32
-42.16
-51.58
-63.09
-76.44
-90.38
-102.75
-110.84
-112.14
-105.21
-90.17
-68.85
-44.17
-19.29
3.31
22.27
37.33
48.79
57.08
62.42
64.96
64.99
63.16
60.56
58.33
57.34
57.84
59.37
61.09
62.09
61.78
60.11
57.42
54.2
50.68
46.67
41.66
35.07
26.6
16.54
5.68
-4.91
-14.34
-22.22
-28.8
-34.92
-41.67
-50.07
-60.82
-73.97
-88.74
-103.44
-115.65
-122.61
-122.03
-112.77
-95.33
-71.82
-45.32
-19.06
4.44
23.76
38.43
48.64
54.84
57.53
57.36
55.18
52.04
48.99
46.8
45.75
45.67
46.12
46.64
46.92
46.83
46.27
45.04
42.79
39.19
34.02
27.35
19.59
11.33
3.13
-4.62
-11.87
-18.87
-26.21
-34.63
-44.79
-56.86
-70.12
-82.79
-92.23
-95.66
-91.08
-78.01
-57.88
-33.57
-8.6
13.93
32.05
45.09
53.35
57.57
58.49
56.72
52.82
47.6
42.03
37.21
33.95
32.53
32.68
33.67
34.67
34.99
34.15
31.8
27.72
21.76
14.01
4.86
-5.05
-14.96
-24.3
-32.87
-40.94
-49.17
-58.36
-69.16
-81.64
-95.05
-107.62
-116.85
-119.96
-114.82
-100.69
-78.69
-51.58
-23.0
3.6
25.81
42.62
54.2
61.29
64.8
65.47
63.99
61.12
57.78
54.85
52.92
52.11
52.05
52.22
52.13
51.6
50.66
49.29
47.26
44.05
39.02
31.74
22.29
11.31
-0.15
-11.07
-20.76
-29.21
-37.01
-45.18
-54.84
-66.75
-80.88
-96.15
-110.38
-120.65
-124.04
-118.62
-104.03
-81.79
-54.84
-26.62
-0.2
22.4
40.37
53.75
62.98
68.53
70.83
70.37
67.94
64.58
61.39
59.22
58.36
58.49
58.87
58.79
57.84
56.06
53.82
51.42
48.83
45.51
40.69
33.69
24.41
13.39
1.72
-9.34
-18.95
-26.96
-33.95
-41.04
-49.51
-60.33
-73.83
-89.28
-104.86
-117.8
-125.04
-123.97
-113.39
-93.95
-68.06
-39.19
-10.89
14.14
34.41
49.56
59.92
66.09
68.66
68.26
65.73
62.15
58.71
56.39
55.67
56.34
57.67
58.81
59.19
58.71
57.62
56.19
54.32
51.48
46.9
39.96
30.59
19.39
7.38
-4.3
-14.84
-23.96
-31.99
-39.67
-48.0
-57.95
-70.09
-84.25
-99.22
-112.72
-121.84
-123.79
-116.85
-100.98
-77.88
-50.59
-22.52
3.33
24.99
41.59
53.02
59.69
62.17
61.22
57.79
52.99
48.07
44.14
41.92
41.58
42.73
44.62
46.37
47.25
46.71
44.48
40.47
34.67
27.26
18.54
9.0
-0.84
-10.57
-20.03
-29.42
-39.26
-50.15
-62.46
-75.94
-89.42
-100.85
-107.55
-107.06
-97.93
-80.35
-56.28
-28.92
-1.81
22.12
41.11
54.68
63.2
67.44
68.19
66.13
61.98
56.58
50.9
45.92
42.39
40.59
40.33
41.01
41.85
42.1
41.11
38.43
33.81
27.2
18.79
9.04
-1.39
-11.79
-21.65
-30.83
-39.68
-48.91
-59.41
-71.8
-86.0
-100.9
-114.18
-122.76
-123.65
-115.0
-96.82
-71.26
-41.91
-12.72
13.14
34.0
49.59
60.51
67.54
71.18
71.68
69.33
64.78
59.09
53.52
49.16
46.59
45.69
45.77
45.86
45.03
42.66
38.55
32.92
26.2
18.81
11.03
2.88
-5.83
-15.39
-26.11
-38.27
-51.98
-67.01
-82.5
-96.78
-107.47
-112.0
-108.36
-95.91
-75.74
-50.44
-23.4
2.23
24.25
41.69
54.49
63.03
67.71
68.78
66.56
61.72
55.42
49.11
44.07
40.99
39.68
39.25
38.5
36.53
33.01
28.22
22.75
17.1
11.44
5.51
-1.22
-9.37
-19.49
-31.88
-46.47
-62.55
-78.63
-92.39
-101.08
-102.27
-94.64
-78.54
-56.0
-30.13
-4.24
19.05
38.21
52.73
62.74
68.53
70.38
68.59
63.8
57.07
49.87
43.71
39.58
37.71
37.39
37.35
36.3
33.43
28.72
22.81
16.55
10.56
4.87
-1.0
-7.86
-16.45
-27.24
-40.29
-55.17
-70.9
-85.79
-97.55
-103.62
-101.85
-91.28
-72.6
-48.13
-21.22
4.71
27.05
44.48
56.79
64.46
68.15
68.36
65.57
60.39
53.77
46.98
41.29
37.56
35.95
35.88
36.28
36.05
34.43
31.12
26.25
20.2
13.35
6.01
-1.67
-9.63
-17.99
-26.99
-37.05
-48.57
-61.7
-75.95
-89.88
-101.17
-107.04
-105.13
-94.32
-75.32
-50.51
-23.34
2.71
25.0
42.17
53.97
60.84
63.34
62.06
57.59
50.86
43.21
36.24
31.37
29.33
29.88
31.87
33.68
33.84
31.59
27.0
20.81
13.96
7.14
0.52
-6.23
-13.72
-22.57
-33.2
-45.69
-59.75
-74.52
-88.47
-99.48
-105.1
-103.19
-92.69
-74.14
-49.74
-22.78
3.25
25.56
42.66
54.27
60.99
63.67
63.13
60.02
55.02
48.97
42.94
38.0
34.98
34.11
34.99
36.66
37.97
37.85
35.66
31.21
24.77
16.89
8.18
-0.85
-9.94
-19.01
-28.23
-37.88
-48.4
-60.21
-73.51
-87.84
-101.78
-112.99
-118.58
-116.1
-104.4
-84.26
-58.26
-30.01
-3.01
20.28
38.74
52.36
61.64
67.08
69.1
68.18
65.14
61.19
57.63
55.46
54.95
55.66
56.7
57.18
56.62
55.04
52.76
50.03
46.75
42.45
36.51
28.45
18.31
6.69
-5.38
-16.79
-26.79
-35.19
-42.45
-49.57
-57.75
-68.03
-80.79
-95.41
-110.04
-121.82
-127.57
-124.73
-112.28
-91.29
-64.53
-35.71
-8.28
15.39
34.32
48.62
58.84
65.5
68.89
69.29
67.22
63.65
59.84
56.98
55.81
56.38
58.1
60.09
61.46
61.69
60.63
58.51
55.61
52.12
48.02
43.07
36.95
29.45
20.57
10.58
0.01
-10.49
-20.36
-29.23
-37.04
-44.07
-50.83
-58.0
-66.35
-76.52
-88.73
-102.46
-116.16
-127.35
-133.13
-131.03
-119.85
-100.18
-74.24
-45.28
-16.61
9.13
30.34
46.33
57.02
62.7
63.9
61.52
56.87
51.51
47.01
44.42
44.07
45.46
47.61
49.43
50.2
49.76
48.37
46.47
44.25
41.56
37.87
32.62
25.48
16.59
6.62
-3.46
-12.74
-20.72
-27.52
-33.87
-40.85
-49.5
-60.45
-73.5
-87.5
-100.34
-109.39
-112.06
-106.62
-92.74
-71.69
-46.0
-18.78
6.99
29.13
46.36
58.19
64.74
66.48
64.22
59.11
52.59
46.18
41.2
38.43
37.95
39.18
41.17
42.93
43.82
43.64
42.5
40.52
37.58
33.24
26.98
18.54
8.18
-3.28
-14.67
-24.97
-33.69
-41.07
-48.01
-55.77
-65.53
-77.9
-92.45
-107.57
-120.6
-128.42
-128.35
-119.03
-100.87
-76.04
-47.76
-19.37
6.42
27.98
44.64
56.39
63.43
66.16
65.17
61.42
56.24
51.13
47.41
45.78
46.14
47.7
49.37
50.25
50.0
48.82
47.2
45.49
43.53
40.73
36.25
29.56
20.65
10.19
-0.77
-11.17
-20.4
-28.39
-35.68
-43.16
-51.88
-62.71
-76.0
-91.18
-106.61
-119.59
-126.99
-126.17
-115.89
-96.88
-71.61
-43.53
-15.99
8.59
28.96
44.8
56.26
63.48
66.68
66.31
63.31
59.07
55.12
52.7
52.33
53.77
56.21
58.63
60.22
60.56
59.66
57.77
55.2
52.0
47.97
42.67
35.68
26.84
16.41
5.08
-6.23
-16.65
-25.68
-33.34
-40.15
-46.98
-54.8
-64.45
-76.3
-90.01
-104.31
-117.0
-125.32
-126.67
-119.38
-103.32
-80.08
-52.53
-24.04
2.42
24.81
42.18
54.43
61.9
65.15
64.87
61.99
57.76
53.59
50.77
50.07
51.5
54.35
57.53
60.02
61.27
61.28
60.42
59.09
57.31
54.67
50.48
44.09
35.26
24.42
12.49
0.66
-10.1
-19.31
-27.11
-34.16
-41.38
-49.72
-59.9
-72.22
-86.26
-100.73
-113.41
-121.56
-122.54
-114.66
-97.86
-73.85
-45.68
-16.88
9.45
31.19
47.4
58.04
63.56
64.71
62.34
57.49
51.39
45.32
40.43
37.42
36.45
37.09
38.61
40.23
41.35
41.59
40.7
38.44
34.54
28.79
21.21
12.18
2.4
-7.33
-16.42
-24.72
-32.64
-41.03
-50.84
-62.72
-76.53
-91.08
-104.15
-112.87
-114.51
-107.34
-91.27
-67.98
-40.49
-12.24
13.76
35.52
52.17
63.63
70.23
72.45
70.92
66.58
60.71
54.83
50.33
48.04
48.05
49.72
51.99
53.9
54.83
54.64
53.48
51.49
48.58
44.36
38.23
29.79
19.11
6.83
-5.95
-18.04
-28.6
-37.45
-45.16
-52.84
-61.82
-73.2
-87.35
-103.53
-119.75
-133.0
-139.95
-137.96
-125.88
-104.64
-76.94
-46.48
-16.87
9.26
30.58
46.85
58.41
65.73
69.23
69.43
67.19
63.8
60.74
59.24
59.81
62.03
64.79
66.8
67.23
66.04
63.83
61.42
59.23
57.01
53.87
48.71
40.77
30.08
17.5
4.35
-8.04
-18.93
-28.3
-36.89
-45.8
-56.23
-69.02
-84.34
-101.38
-118.18
-131.81
-138.98
-136.91
-124.33
-102.04
-72.78
-40.41
-8.84
19.0
41.52
58.41
70.1
77.26
80.53
80.57
78.17
74.4
70.51
67.65
66.58
67.45
69.68
72.33
74.34
74.98
74.01
71.61
68.22
64.14
59.36
53.48
45.96
36.41
24.95
12.27
-0.56
-12.43
-22.67
-31.28
-38.92
-46.61
-55.41
-66.17
-79.26
-94.51
-110.98
-126.78
-139.23
-145.25
-142.27
-129.09
-106.5
-77.18
-44.93
-13.64
13.71
35.51
51.35
61.58
66.87
67.96
65.76
61.46
56.5
52.34
50.07
50.07
51.98
54.89
57.79
59.92
60.94
60.74
59.28
56.3
51.44
44.41
35.22
24.36
12.67
1.11
-9.57
-19.08
-27.71
-36.23
-45.73
-57.22
-71.13
-86.78
-102.19
-114.36
-119.96
-116.37
-102.69
-80.07
-51.5
-20.82
8.33
33.3
52.76
66.41
74.5
77.48
75.98
70.97
63.92
56.61
50.78
47.53
47.02
48.47
50.65
52.38
53.01
52.53
51.22
49.31
46.57
42.35
35.88
26.66
14.9
1.52
-12.1
-24.63
-35.3
-44.15
-52.0
-60.22
-70.25
-83.12
-98.98
-116.61
-133.45
-145.88
-150.16
-143.66
-125.75
-98.29
-65.06
-30.63
0.97
27.24
47.4
61.92
71.78
77.82
80.61
80.59
78.42
75.15
72.08
70.36
70.57
72.5
75.24
77.57
78.48
77.52
74.82
70.95
66.5
61.75
56.49
50.17
42.13
31.99
19.91
6.57
-6.94
-19.55
-30.58
-39.92
-48.1
-56.08
-65.04
-76.02
-89.62
-105.69
-123.02
-139.17
-150.84
-154.62
-148.03
-130.47
-103.61
-70.97
-36.81
-4.95
22.18
43.71
59.93
71.63
79.5
83.97
85.41
84.47
82.15
79.72
78.35
78.63
80.51
83.3
86.07
87.98
88.51
87.46
84.81
80.6
74.84
67.67
59.32
50.14
40.41
30.26
19.6
8.34
-3.45
-15.43
-27.06
-37.78
-47.32
-55.77
-63.63
-71.72
-81.04
-92.46
-106.44
-122.5
-138.93
-152.72
-160.23
-158.18
-144.86
-120.85
-89.0
-53.54
-18.83
11.76
36.44
54.76
67.2
74.52
77.52
77.07
74.24
70.34
66.76
64.59
64.34
65.71
67.83
69.62
70.21
69.3
67.14
64.27
61.1
57.61
53.24
47.19
38.79
27.97
15.39
2.23
-10.22
-21.08
-30.23
-38.26
-46.32
-55.68
-67.3
-81.41
-97.21
-112.71
-125.02
-130.9
-127.77
-114.48
-91.95
-62.88
-31.08
-0.31
26.54
47.86
63.1
72.4
76.21
75.23
70.55
63.74
56.65
51.01
47.93
47.58
49.23
51.65
53.67
54.59
54.32
53.16
51.35
48.78
44.9
38.95
30.37
19.19
6.14
-7.53
-20.49
-31.82
-41.3
-49.51
-57.56
-66.81
-78.34
-92.52
-108.54
-124.29
-136.62
-142.08
-138.0
-123.4
-99.47
-69.26
-36.77
-5.81
20.94
42.19
57.79
68.22
74.08
75.96
74.55
70.86
66.19
61.99
59.44
59.06
60.6
63.1
65.34
66.31
65.58
63.37
60.28
56.86
53.18
48.71
42.56
33.95
22.73
9.57
-4.23
-17.24
-28.42
-37.56
-45.23
-52.57
-60.96
-71.58
-85.07
-101.1
-118.08
-133.22
-143.06
-144.37
-135.28
-115.99
-88.81
-57.46
-25.88
2.75
26.64
45.32
59.06
68.43
73.92
76.01
75.34
72.84
69.66
66.95
65.54
65.76
67.34
69.57
71.6
72.66
72.29
70.42
67.27
63.2
58.46
53.02
46.59
38.7
29.03
17.67
5.16
-7.59
-19.59
-30.18
-39.24
-47.2
-54.9
-63.42
-73.75
-86.5
-101.59
-117.94
-133.37
-144.86
-149.26
-144.24
-129.15
-105.24
-75.47
-43.54
-12.97
13.71
35.11
50.83
61.11
66.44
67.55
65.4
61.26
56.58
52.74
50.7
50.73
52.35
54.6
56.45
57.2
56.7
55.2
53.13
50.57
47.18
42.28
35.22
25.78
14.45
2.31
-9.39
-19.7
-28.42
-36.04
-43.56
-52.17
-62.78
-75.75
-90.51
-105.49
-118.15
-125.45
-124.69
-114.39
-94.93
-68.58
-38.86
-9.49
16.56
37.49
52.65
62.15
66.44
66.18
62.29
56.02
48.9
42.44
37.79
35.41
35.04
35.91
37.1
37.8
37.59
36.28
33.82
30.08
24.75
17.43
7.83
-3.96
-17.43
-31.72
-45.89
-59.24
-71.51
-82.98
-94.3
-106.23
-119.24
-133.11
-146.69
-157.9
-164.05
-162.54
-151.77
-131.7
-104.12
-72.21
-39.62
-9.49
16.17
36.69
52.27
63.52
70.99
75.1
76.26
75.16
72.71
69.88
67.41
65.54
64.06
62.54
60.69
58.49
56.27
54.43
53.16
52.29
51.23
49.2
45.52
39.94
32.78
24.8
17.0
10.2
4.78
0.53
-3.32
-7.86
-14.25
-23.27
-34.91
-48.04
-60.31
-68.64
-69.9
-62.05
-44.82
-20.01
9.08
38.57
65.03
86.19
101.16
110.08
113.65
112.81
108.51
101.86
94.07
86.38
79.79
74.74
71.0
67.75
64.01
59.11
53.0
46.27
39.78
34.2
29.63
25.51
20.9
14.84
6.75
-3.4
-15.1
-27.57
-40.05
-52.16
-64.03
-76.39
-90.29
-106.68
-125.79
-146.6
-166.61
-182.17
-189.43
-185.59
-169.91
-144.11
-111.97
-78.13
-46.83
-20.83
-1.14
12.67
21.73
27.22
30.07
31.02
30.87
30.54
31.01
33.04
36.85
42.04
47.71
52.86
56.69
58.85
59.33
58.29
55.78
51.63
45.61
37.59
27.82
16.92
5.72
-5.01
-14.94
-24.36
-34.13
-45.35
-58.81
-74.42
-90.75
-105.04
-113.81
-113.9
-103.55
-83.17
-55.28
-23.8
7.15
34.31
55.8
71.1
80.56
84.89
84.91
81.56
75.96
69.42
63.25
58.51
55.71
54.78
55.21
56.21
56.97
56.78
55.08
51.41
45.49
37.19
26.67
14.4
1.05
-12.56
-25.69
-37.9
-49.15
-59.88
-70.89
-83.07
-96.99
-112.35
-127.67
-140.26
-146.74
-144.02
-130.46
-106.55
-75.0
-39.89
-5.48
25.05
50.16
69.77
84.62
95.42
102.56
106.18
106.59
104.55
101.23
97.81
95.04
93.0
91.22
89.04
86.07
82.36
78.2
73.82
69.04
63.26
55.6
45.47
32.83
18.37
3.32
-10.94
-23.45
-33.91
-42.87
-51.53
-61.41
-73.8
-89.19
-106.71
-124.05
-137.71
-144.0
-140.15
-125.36
-101.16
-70.95
-38.87
-8.6
17.49
38.53
54.67
66.44
74.28
78.45
79.24
77.33
73.92
70.48
68.36
68.21
69.83
72.19
73.98
74.16
72.4
69.04
64.82
60.3
55.55
50.01
42.85
33.41
21.66
8.33
-5.33
-17.94
-28.58
-37.08
-44.03
-50.66
-58.39
-68.43
-81.32
-96.62
-112.63
-126.65
-135.38
-135.87
-126.45
-107.31
-80.67
-50.03
-19.23
8.64
31.79
49.69
62.69
71.35
76.16
77.54
76.05
72.57
68.31
64.53
62.15
61.43
61.94
62.82
63.13
62.29
60.18
57.18
53.73
50.13
46.23
41.45
35.08
26.63
16.2
4.47
-7.44
-18.39
-27.69
-35.3
-41.83
-48.23
-55.52
-64.46
-75.42
-88.27
-102.2
-115.61
-126.13
-131.04
-127.99
-115.86
-95.22
-68.41
-38.83
-10.03
15.22
35.36
49.96
59.33
64.06
64.8
62.32
57.65
52.12
47.18
44.01
43.16
44.34
46.59
48.78
50.04
50.1
49.16
47.56
45.37
42.19
37.32
30.1
20.48
9.04
-3.03
-14.45
-24.3
-32.33
-39.02
-45.37
-52.56
-61.62
-73.02
-86.35
-100.11
-111.85
-118.63
-117.92
-108.41
-90.6
-66.71
-39.97
-13.6
9.95
29.38
44.31
54.86
61.3
63.91
63.15
59.87
55.29
50.8
47.6
46.33
46.88
48.51
50.18
50.95
50.34
48.47
45.79
42.79
39.68
36.21
31.75
25.68
17.65
7.92
-2.75
-13.31
-22.83
-30.78
-37.23
-42.79
-48.43
-55.26
-64.23
-75.78
-89.54
-104.1
-117.05
-125.44
-126.58
-118.91
-102.61
-79.57
-52.87
-25.81
-1.07
19.74
36.08
48.08
56.1
60.53
61.81
60.55
57.66
54.32
51.66
50.5
50.97
52.6
54.46
55.64
55.5
54.01
51.51
48.5
45.34
41.92
37.82
32.39
25.2
16.19
5.84
-5.05
-15.65
-25.36
-33.99
-41.75
-49.15
-56.86
-65.59
-75.83
-87.62
-100.18
-111.75
-119.84
-121.83
-115.83
-101.5
-80.2
-54.65
-28.12
-3.44
17.55
34.11
46.32
54.6
59.35
60.94
59.82
56.75
52.79
49.19
46.99
46.68
48.06
50.31
52.4
53.49
53.21
51.7
49.37
46.59
43.42
39.55
34.44
27.65
19.06
9.02
-1.72
-12.3
-21.98
-30.46
-37.92
-44.91
-52.24
-60.71
-70.96
-83.15
-96.74
-110.32
-121.68
-128.18
-127.57
-118.61
-101.61
-78.42
-51.89
-25.14
-0.79
19.44
34.76
45.11
50.87
52.66
51.35
47.96
43.67
39.64
36.74
35.42
35.63
36.89
38.57
40.1
41.15
41.56
41.22
39.89
37.19
32.67
26.04
17.42
7.34
-3.32
-13.68
-23.05
-31.27
-38.69
-46.2
-54.89
-65.6
-78.45
-92.36
-105.1
-113.7
-115.34
-108.34
-92.75
-70.4
-44.27
-17.6
6.94
27.57
43.42
54.23
60.05
61.25
58.61
53.39
47.16
41.47
37.47
35.56
35.51
36.61
38.13
39.55
40.61
41.23
41.23
40.18
37.48
32.56
25.17
15.56
4.46
-7.14
-18.31
-28.47
-37.59
-46.15
-55.01
-65.17
-77.3
-91.43
-106.44
-120.14
-129.53
-131.64
-124.54
-108.02
-83.85
-55.26
-25.9
1.09
23.75
41.31
53.88
61.91
65.92
66.52
64.53
61.05
57.31
54.42
53.02
53.13
54.27
55.7
56.82
57.34
57.26
56.67
55.48
53.24
49.3
43.02
34.18
23.19
10.98
-1.25
-12.54
-22.49
-31.39
-40.15
-49.94
-61.81
-76.22
-92.62
-109.27
-123.39
-131.75
-131.59
-121.52
-102.1
-75.72
-45.92
-16.3
10.33
32.47
49.76
62.51
71.21
76.23
77.98
77.12
74.73
72.15
70.62
70.74
72.31
74.39
75.92
76.13
74.94
72.8
70.3
67.69
64.61
60.24
53.65
44.35
32.59
19.26
5.64
-7.1
-18.25
-27.81
-36.37
-44.95
-54.72
-66.62
-81.11
-97.64
-114.53
-128.98
-137.63
-137.53
-127.11
-106.81
-79.02
-47.39
-15.71
12.98
36.85
55.19
68.03
75.73
78.86
78.28
75.18
71.01
67.2
64.79
64.12
64.9
66.37
67.82
68.76
69.06
68.73
67.74
65.74
62.19
56.5
48.41
38.13
26.41
14.29
2.73
-7.67
-16.88
-25.47
-34.36
-44.54
-56.67
-70.62
-85.23
-98.2
-106.49
-107.12
-98.14
-79.34
-52.52
-20.93
11.65
41.92
67.7
87.89
102.14
110.45
112.99
110.25
103.3
93.83
83.82
75.08
68.67
64.75
62.75
61.73
60.88
59.74
58.24
56.45
54.22
51.0
45.88
37.97
26.86
12.96
-2.45
-17.74
-31.61
-43.56
-54.16
-64.75
-76.93
-91.92
-110.1
-130.65
-151.44
-169.2
-180.19
-181.09
-170.08
-147.58
-116.25
-80.23
-43.84
-10.5
17.85
40.6
57.85
69.91
77.11
79.9
79.2
76.44
73.27
71.12
70.68
71.72
73.33
74.37
74.03
72.14
69.05
65.38
61.53
57.4
52.4
45.69
36.6
25.06
11.74
-2.12
-15.07
-25.92
-34.18
-40.23
-45.21
-50.8
-58.66
-69.93
-84.6
-101.16
-116.68
-127.35
-129.56
-121.08
-101.84
-74.06
-41.56
-8.53
21.6
46.8
66.45
80.8
90.44
95.89
97.62
96.24
92.67
88.13
83.86
80.84
79.45
79.45
80.14
80.63
80.25
78.69
76.09
72.8
69.12
65.01
60.03
53.52
44.88
33.98
21.3
7.82
-5.3
-17.09
-27.2
-35.91
-44.04
-52.66
-62.81
-75.24
-90.16
-106.92
-123.8
-138.11
-146.6
-146.35
-135.75
-115.13
-86.89
-54.75
-22.74
5.85
29.1
46.4
58.04
64.62
66.78
65.13
60.58
54.34
47.95
42.88
40.1
39.84
41.44
43.82
45.82
46.75
46.44
45.18
43.3
40.86
37.53
32.66
25.71
16.55
5.65
-6.0
-17.26
-27.25
-35.68
-43.0
-50.19
-58.49
-68.95
-81.95
-96.94
-112.19
-125.08
-132.59
-132.15
-122.38
-103.66
-78.07
-48.83
-19.5
6.92
28.51
44.41
54.65
59.71
60.33
57.39
52.09
45.89
40.33
36.7
35.63
36.89
39.55
42.36
44.24
44.67
43.63
41.38
38.09
33.57
27.38
19.12
8.8
-2.94
-15.0
-26.14
-35.63
-43.47
-50.47
-57.96
-67.28
-79.2
-93.54
-108.92
-122.88
-132.39
-134.61
-127.64
-111.24
-86.94
-57.73
-27.21
1.25
25.29
43.78
56.67
64.52
68.11
68.24
65.79
61.72
57.15
53.12
50.32
48.86
48.33
47.98
47.25
45.97
44.35
42.66
40.91
38.54
34.61
28.16
18.72
6.59
-7.17
-21.1
-33.88
-44.75
-53.79
-61.83
-70.08
-79.81
-91.78
-105.88
-120.84
-134.26
-143.07
-144.33
-136.14
-118.41
-92.98
-63.06
-32.31
-3.75
20.8
40.69
56.03
67.19
74.46
78.17
78.83
77.4
75.13
73.33
72.91
74.11
76.46
78.99
80.71
80.97
79.69
77.28
74.3
71.06
67.34
62.41
55.41
45.79
33.76
20.23
6.58
-5.93
-16.62
-25.67
-33.95
-42.75
-53.3
-66.34
-81.83
-98.67
-114.72
-127.1
-132.79
-129.5
-116.42
-94.61
-66.78
-36.53
-7.39
17.92
37.88
52.01
60.63
64.43
64.37
61.57
57.31
52.89
49.36
47.29
46.66
47.02
47.74
48.31
48.53
48.46
48.22
47.74
46.57
44.05
39.48
32.48
23.24
12.5
1.36
-9.14
-18.38
-26.33
-33.61
-41.31
-50.57
-62.19
-76.1
-91.04
-104.6
-113.69
-115.36
-107.77
-90.81
-66.28
-37.4
-7.86
19.07
41.21
57.55
68.08
73.3
74.01
71.14
65.86
59.54
53.57
49.07
46.6
46.0
46.55
47.34
47.61
47.03
45.63
43.62
41.06
37.74
33.14
26.73
18.21
7.73
-4.05
-16.14
-27.53
-37.53
-46.03
-53.57
-61.3
-70.6
-82.54
-97.29
-113.61
-128.77
-139.15
-141.22
-132.8
-113.86
-86.62
-54.79
-22.45
7.14
32.08
51.75
66.36
76.26
81.76
83.13
80.99
76.46
71.11
66.58
64.0
63.69
65.01
66.81
67.9
67.57
65.74
62.83
59.38
55.65
51.45
46.22
39.3
30.25
19.17
6.71
-6.09
-18.17
-28.75
-37.65
-45.32
-52.69
-60.95
-71.2
-84.04
-99.2
-115.15
-129.26
-138.22
-139.01
-129.85
-110.9
-84.32
-53.56
-22.4
6.12
30.2
49.24
63.38
73.03
78.53
80.22
78.66
74.82
70.04
65.74
63.09
62.6
64.08
66.76
69.59
71.65
72.27
71.2
68.47
64.27
58.75
51.96
43.81
34.15
23.0
10.64
-2.25
-14.83
-26.29
-36.21
-44.61
-52.02
-59.23
-67.21
-76.87
-88.76
-102.73
-117.57
-130.88
-139.51
-140.4
-131.65
-113.23
-87.17
-56.83
-25.9
2.52
26.46
45.03
58.15
66.05
69.25
68.52
64.93
59.86
54.79
50.98
49.26
49.81
52.19
55.45
58.47
60.34
60.63
59.39
57.07
54.07
50.48
45.96
39.89
31.74
21.44
9.58
-2.79
-14.46
-24.67
-33.22
-40.64
-47.84
-55.83
-65.44
-77.1
-90.68
-105.21
-118.88
-129.11
-133.13
-128.74
-115.08
-93.1
-65.3
-35.07
-5.76
20.01
40.71
55.74
65.1
69.17
68.59
64.34
57.77
50.54
44.21
39.97
38.24
38.67
40.37
42.32
43.79
44.53
44.68
44.39
43.55
41.64
37.87
31.58
22.65
11.66
-0.26
-11.83
-22.11
-30.77
-38.23
-45.46
-53.69
-64.01
-76.89
-91.88
-107.26
-120.29
-127.74
-126.83
-116.19
-96.37
-69.74
-39.76
-9.96
16.89
39.16
56.26
68.21
75.3
77.96
76.79
72.74
67.14
61.56
57.44
55.71
56.54
59.28
62.74
65.61
66.94
66.27
63.73
59.7
54.52
48.3
40.86
31.91
21.33
9.33
-3.46
-16.16
-27.89
-38.09
-46.68
-54.16
-61.46
-69.71
-79.95
-92.68
-107.49
-122.76
-135.78
-143.29
-142.45
-131.72
-111.58
-84.4
-53.75
-23.33
3.95
26.46
43.72
55.92
63.53
67.03
67.02
64.34
60.17
55.9
52.82
51.74
52.79
55.4
58.54
61.16
62.49
62.29
60.76
58.35
55.38
51.79
47.13
40.81
32.39
21.95
10.08
-2.24
-14.01
-24.55
-33.72
-41.86
-49.67
-58.03
-67.8
-79.67
-93.83
-109.65
-125.36
-138.17
-144.84
-142.54
-129.94
-107.72
-78.56
-46.27
-14.73
13.11
35.7
52.71
64.52
71.72
74.85
74.52
71.59
67.3
63.14
60.45
60.0
61.76
64.91
68.21
70.54
71.2
70.14
67.8
64.73
61.3
57.45
52.74
46.6
38.6
28.74
17.47
5.62
-5.96
-16.67
-26.27
-34.99
-43.31
-51.87
-61.33
-72.32
-85.21
-99.81
-115.11
-129.07
-138.87
-141.58
-135.07
-118.8
-94.14
-64.04
-32.18
-1.99
23.99
44.38
58.73
67.21
70.39
69.12
64.71
58.75
52.97
48.83
47.14
47.86
50.24
53.25
55.95
57.83
58.84
59.1
58.57
56.88
53.32
47.21
38.25
26.84
14.01
1.15
-10.55
-20.54
-29.08
-37.15
-46.07
-57.06
-70.76
-86.8
-103.62
-118.59
-128.51
-130.38
-122.37
-104.43
-78.42
-47.62
-15.82
13.71
38.76
58.26
71.97
80.07
82.93
81.19
75.93
68.76
61.62
56.29
53.87
54.43
57.08
60.38
62.92
63.86
63.07
60.97
58.13
54.81
50.69
45.09
37.2
26.64
13.71
-0.55
-14.78
-27.7
-38.68
-47.88
-56.21
-65.02
-75.69
-89.19
-105.62
-123.86
-141.43
-154.87
-160.54
-155.7
-139.47
-113.25
-80.3
-44.8
-10.69
19.22
43.45
61.61
73.93
80.85
83.04
81.36
77.13
71.96
67.51
65.07
65.15
67.37
70.6
73.42
74.72
74.05
71.74
68.57
65.17
61.68
57.48
51.56
43.01
31.63
18.06
3.7
-9.92
-21.7
-31.4
-39.64
-47.71
-57.11
-69.11
-84.3
-102.13
-120.73
-137.02
-147.32
-148.32
-138.17
-117.13
-87.61
-53.49
-18.99
12.42
38.59
58.74
73.04
82.05
86.49
87.08
84.77
80.84
76.8
74.03
73.45
75.09
78.12
81.24
83.18
83.27
81.57
78.74
75.48
72.08
68.19
62.93
55.33
44.81
31.53
16.41
0.82
-13.82
-26.53
-37.09
-46.04
-54.5
-63.85
-75.35
-89.69
-106.65
-124.74
-141.31
-152.88
-156.02
-148.38
-129.51
-101.21
-67.02
-31.21
2.32
30.91
53.32
69.42
79.63
84.59
85.04
81.96
76.79
71.26
67.02
65.2
65.98
68.6
71.71
74.01
74.74
73.88
71.95
69.49
66.62
62.81
57.1
48.64
37.2
23.35
8.39
-6.14
-19.08
-29.94
-39.07
-47.41
-56.26
-66.94
-80.35
-96.58
-114.46
-131.38
-143.71
-147.71
-140.78
-122.46
-94.66
-61.06
-25.93
7.05
35.44
58.08
74.57
84.86
89.12
87.88
82.33
74.39
66.35
60.28
57.45
58.01
60.98
64.8
67.88
69.18
68.44
66.04
62.56
58.34
53.22
46.6
37.84
26.66
13.4
-0.94
-15.13
-28.03
-39.14
-48.65
-57.43
-66.75
-77.96
-91.99
-108.88
-127.41
-144.94
-157.81
-162.24
-155.44
-136.71
-107.73
-72.2
-34.7
0.56
30.72
54.5
71.88
83.51
90.11
92.38
91.0
86.94
81.54
76.3
72.64
71.4
72.64
75.59
78.96
81.39
81.92
80.25
76.71
71.96
66.52
60.48
53.45
44.77
33.99
21.11
6.8
-7.85
-21.71
-34.02
-44.61
-53.91
-62.72
-72.08
-83.03
-96.39
-112.42
-130.35
-148.11
-162.36
-169.23
-165.5
-149.71
-122.87
-88.28
-50.5
-14.04
17.78
43.28
62.3
75.54
83.94
88.35
89.44
87.95
84.86
81.36
78.62
77.55
78.41
80.81
83.86
86.51
87.86
87.39
84.98
80.83
75.29
68.66
61.11
52.65
43.13
32.45
20.64
8.01
-4.87
-17.35
-28.89
-39.31
-48.74
-57.65
-66.63
-76.42
-87.78
-101.33
-117.15
-134.28
-150.43
-162.14
-165.64
-158.13
-138.83
-109.5
-73.95
-36.86
-2.44
26.55
49.07
65.32
76.11
82.25
84.37
83.08
79.29
74.28
69.59
66.63
66.22
68.32
72.12
76.31
79.59
81.11
80.56
78.14
74.28
69.33
63.4
56.4
48.09
38.25
26.86
14.19
0.77
-12.69
-25.49
-37.11
-47.37
-56.55
-65.29
-74.49
-85.19
-98.15
-113.48
-130.22
-146.14
-157.95
-162.07
-155.71
-137.9
-110.02
-75.5
-38.79
-4.09
25.62
48.87
65.41
75.57
79.86
78.88
73.62
65.64
57.05
50.01
46.14
45.96
48.82
53.21
57.45
60.32
61.39
60.98
59.71
57.96
55.56
51.7
45.4
35.99
23.55
9.09
-5.82
-19.58
-31.2
-40.61
-48.66
-56.74
-66.41
-78.77
-94.12
-111.57
-128.96
-143.02
-150.19
-147.55
-133.8
-109.82
-78.48
-43.78
-9.79
20.36
44.87
63.13
75.27
81.77
83.21
80.48
74.88
68.1
61.97
58.04
57.08
58.87
62.36
66.01
68.46
68.93
67.39
64.41
60.61
56.25
51.0
44.15
34.97
23.22
9.42
-5.28
-19.49
-32.14
-42.81
-51.82
-60.02
-68.54
-78.48
-90.74
-105.74
-123.0
-140.84
-156.3
-165.61
-165.21
-153.05
-129.37
-96.84
-59.74
-22.7
10.54
37.8
58.42
72.73
81.47
85.41
85.31
82.14
77.16
71.88
67.71
65.65
65.96
68.12
71.06
73.55
74.68
74.12
72.06
69.01
65.35
61.03
55.52
48.11
38.23
25.86
11.66
-3.18
-17.4
-30.06
-40.87
-50.2
-58.94
-68.27
-79.39
-93.18
-109.79
-128.28
-146.3
-160.34
-166.53
-161.79
-144.97
-117.38
-82.48
-44.89
-9.0
22.03
46.71
64.92
77.29
84.61
87.56
86.82
83.32
78.4
73.63
70.49
69.83
71.58
74.83
78.13
80.19
80.25
78.32
74.96
70.88
66.51
61.71
55.83
48.06
37.8
25.08
10.61
-4.41
-18.68
-31.32
-42.09
-51.45
-60.34
-69.91
-81.25
-95.15
-111.72
-130.0
-147.71
-161.41
-167.28
-162.23
-145.09
-117.16
-81.9
-43.89
-7.5
24.2
49.66
68.59
81.29
88.22
89.91
87.17
81.34
74.32
68.13
64.38
63.78
65.92
69.53
73.04
75.17
75.35
73.76
71.01
67.7
64.0
59.52
53.42
44.91
33.69
20.22
5.64
-8.59
-21.3
-32.07
-41.25
-49.84
-59.09
-70.13
-83.71
-99.98
-118.09
-136.02
-150.66
-158.37
-156.05
-142.17
-117.47
-84.78
-48.22
-11.98
20.58
47.35
67.32
80.21
86.21
85.98
80.78
72.5
63.39
55.53
50.37
48.36
48.95
50.98
53.21
54.76
55.34
55.03
54.01
52.11
48.75
43.06
34.39
22.68
8.68
-6.23
-20.54
-33.12
-43.64
-52.69
-61.6
-72.0
-85.28
-101.94
-121.08
-140.2
-155.57
-163.08
-159.55
-143.72
-116.81
-82.21
-44.41
-7.81
24.36
50.33
69.62
82.44
89.25
90.63
87.44
81.04
73.34
66.42
61.96
60.67
62.12
64.98
67.68
69.06
68.77
67.17
64.85
62.09
58.6
53.56
46.03
35.5
22.19
7.06
-8.47
-23.08
-35.93
-46.94
-56.73
-66.42
-77.36
-90.76
-107.28
-126.45
-146.32
-163.5
-173.83
-173.51
-160.53
-135.4
-101.18
-62.52
-24.23
9.98
38.12
59.78
75.48
85.99
91.97
94.0
92.78
89.42
85.36
82.15
81.02
82.42
85.91
90.22
93.81
95.36
94.29
90.8
85.67
79.71
73.32
66.27
57.88
47.42
34.56
19.68
3.76
-11.94
-26.34
-38.93
-49.85
-59.83
-69.97
-81.48
-95.4
-112.26
-131.57
-151.52
-168.92
-179.73
-180.19
-168.04
-143.4
-108.9
-68.95
-28.42
8.63
39.69
63.87
81.43
93.17
99.95
102.57
101.84
98.76
94.64
90.91
88.91
89.44
92.43
96.94
101.41
104.29
104.62
102.38
98.39
93.79
89.36
85.1
80.17
73.36
63.73
51.14
36.52
21.51
7.86
-3.14
-11.26
-17.31
-22.83
-29.61
-39.15
-52.28
-68.84
-87.53
-105.74
-119.8
-125.57
-119.69
-100.94
-71.19
-35.24
0.49
29.99
49.54
58.39
58.24
51.81
41.47
28.56
13.65
-2.71
-19.19
-33.72
-44.06
-48.7
-47.57
-42.09
-34.51
-27.05
-21.12
-17.02
-14.4
-12.82
-12.43
-13.95
-18.29
-25.84
-36.04
-47.33
-57.74
-65.65
-70.42
-72.58
-73.56
-75.17
-78.85
-85.16
-93.24
-100.81
-104.37
-100.03
-84.57
-56.6
-17.26
29.78
79.14
125.14
163.04
189.95
204.86
208.28
201.65
186.97
166.6
143.14
119.25
97.23
78.58
63.71
52.13
42.81
34.75
27.42
20.75
14.96
10.03
5.45
0.23
-6.93
-17.04
-30.46
-46.65
-64.34
-81.92
-97.96
-111.62
-122.79
-132.12
-140.86
-150.57
-162.64
-177.63
-194.63
-211.1
-223.41
-227.82
-221.93
-205.44
-180.31
-150.08
-118.71
-89.6
-64.86
-45.16
-29.94
-17.82
-7.14
3.66
15.59
29.17
44.3
60.47
76.82
92.27
105.74
116.45
124.33
130.13
135.21
140.91
147.86
155.51
162.19
165.66
163.87
155.63
140.88
120.7
96.91
71.55
46.3
22.15
-0.85
-23.49
-46.88
-71.73
-97.52
-122.06
-141.7
-152.41
-151.14
-137.16
-112.43
-81.08
-48.01
-17.54
7.5
25.91
37.71
43.69
45.11
43.56
40.9
38.98
39.15
42.02
47.36
54.3
61.8
68.85
74.74
78.98
81.3
81.54
79.61
75.48
69.16
60.74
50.41
38.61
25.98
13.29
1.25
-9.8
-20.0
-29.99
-40.5
-51.89
-63.55
-73.67
-79.48
-78.09
-67.51
-47.57
-20.28
10.71
41.07
67.08
86.5
98.69
104.26
104.31
99.92
92.02
81.58
69.86
58.39
48.63
41.48
36.91
33.92
30.92
26.22
18.53
7.29
-7.27
-24.28
-42.4
-60.17
-76.4
-90.44
-102.4
-113.04
-123.52
-135.07
-148.59
-164.3
-181.5
-198.36
-212.07
-219.28
-217.05
-203.78
-180.02
-148.52
-113.54
-79.59
-50.12
-26.77
-9.46
3.03
12.09
18.7
23.32
26.14
27.47
27.98
28.6
30.23
33.37
37.94
43.29
48.46
52.43
54.49
54.33
52.19
48.67
44.58
40.69
37.51
35.16
33.34
31.42
28.52
23.73
16.4
6.42
-5.4
-17.18
-26.15
-29.21
-23.89
-9.19
13.88
42.43
72.6
100.76
124.54
143.25
157.58
168.82
178.01
185.51
191.07
194.3
195.1
193.83
191.18
187.8
184.08
180.04
175.54
170.42
164.63
158.19
151.08
143.11
134.05
123.77
112.43
100.51
88.64
77.26
66.31
55.12
42.56
27.45
9.07
-12.33
-35.29
-57.26
-75.03
-85.57
-86.92
-78.86
-63.05
-42.63
-21.26
-2.1
12.96
23.35
29.5
32.16
31.89
28.96
23.56
16.12
7.45
-1.44
-9.61
-16.44
-21.7
-25.43
-27.64
-28.26
-27.12
-24.16
-19.7
-14.5
-9.66
-6.34
-5.39
-7.1
-11.19
-17.02
-23.89
-31.47
-39.93
-49.88
-61.88
-75.9
-90.75
-104.09
-112.87
-114.25
-106.58
-90.07
-66.83
-40.29
-14.15
8.53
25.98
37.75
44.26
46.35
44.82
40.33
33.58
25.45
17.08
9.71
4.36
1.51
0.93
1.79
2.87
2.94
1.07
-3.18
-9.72
-18.02
-27.25
-36.63
-45.67
-54.3
-62.8
-71.74
-81.75
-93.32
-106.5
-120.64
-134.19
-144.75
-149.56
-146.29
-133.88
-113.06
-86.25
-56.91
-28.49
-3.58
16.49
31.49
41.8
47.94
50.32
49.33
45.54
39.86
33.47
27.59
23.17
20.59
19.6
19.45
19.16
17.79
14.68
9.56
2.64
-5.41
-13.62
-20.92
-26.6
-30.49
-33.15
-35.66
-39.37
-45.5
-54.79
-67.17
-81.48
-95.48
-106.04
-109.96
-104.83
-90.03
-67.09
-39.31
-10.69
15.28
36.45
52.25
63.18
70.11
73.78
74.57
72.71
68.52
62.62
55.84
49.1
43.23
38.67
35.58
33.73
32.64
31.66
30.05
27.06
22.14
15.07
6.0
-4.48
-15.49
-26.13
-35.81
-44.43
-52.53
-61.18
-71.55
-84.44
-99.59
-115.41
-129.02
-137.0
-136.4
-125.77
-105.71
-78.75
-48.52
-18.72
7.79
29.41
45.66
56.77
63.31
65.93
65.42
62.69
58.78
54.65
51.01
48.15
45.97
44.1
42.16
39.89
37.17
33.95
30.07
25.24
19.06
11.19
1.59
-9.38
-21.0
-32.36
-42.68
-51.55
-59.14
-66.2
-73.87
-83.27
-109.07
-123.65
-136.14
-143.26
-142.11
-131.11
-110.72
-83.43
-52.98
-23.33
2.52
23.04
38.03
48.15
54.19
56.74
56.26
53.29
48.76
43.89
39.91
37.69
37.45
38.72
40.66
42.29
42.84
41.82
39.05
34.56
28.51
21.14
12.75
3.66
-5.83
-15.47
-25.25
-35.37
-46.27
-58.41
-71.86
-85.89
-98.8
-108.02
-110.78
-104.98
-89.99
-67.02
-38.85
-9.15
18.51
41.49
58.46
69.28
74.67
75.7
73.52
69.21
63.74
57.93
52.51
47.96
44.52
42.18
40.77
39.94
39.28
38.25
36.23
32.56
26.72
18.52
8.16
-3.69
-16.01
-27.74
-38.0
-46.45
-53.49
-60.17
-67.97
-78.12
-91.0
-105.55
-119.26
-128.79
-130.86
-123.44
-106.4
-81.53
-52.0
-21.34
7.39
32.05
51.52
65.46
74.01
77.68
77.38
74.32
69.87
65.34
61.65
59.15
57.7
56.81
55.97
54.87
53.44
51.77
49.89
47.58
44.33
39.47
32.48
23.27
12.29
0.5
-11.03
-21.49
-30.69
-39.19
-48.05
-58.52
-71.41
-86.57
-102.64
-117.06
-126.68
-128.57
-121.0
-104.0
-79.49
-50.62
-20.93
6.64
30.16
48.83
62.51
71.4
75.85
76.38
73.84
69.54
64.92
61.25
59.22
58.78
59.29
59.88
59.85
58.96
57.37
55.43
53.37
50.99
47.66
42.51
34.88
24.58
12.17
-1.21
-14.21
-25.81
-35.69
-44.27
-52.63
-62.03
-73.48
-87.29
-102.69
-117.74
-129.54
-134.92
-131.32
-117.66
-94.82
-65.51
-33.43
-2.33
24.84
46.36
61.64
70.9
74.82
74.31
70.5
64.76
58.61
53.47
50.36
49.55
50.54
52.31
53.75
54.18
53.48
52.02
50.28
48.37
45.95
42.32
36.77
28.99
19.21
8.11
-3.46
-14.72
-25.22
-34.84
-43.96
-53.26
-63.6
-75.54
-88.84
-102.13
-112.97
-118.45
-116.06
-104.62
-84.75
-58.66
-29.59
-0.85
24.8
45.53
60.47
69.5
73.07
72.03
67.51
60.9
53.62
46.94
41.85
38.82
37.85
38.49
40.04
41.68
42.65
42.3
40.14
35.96
29.8
21.99
13.04
3.49
-6.23
-15.92
-25.64
-35.68
-46.49
-58.63
-72.38
-87.44
-102.54
-115.36
-122.93
-122.52
-112.57
-93.4
-67.21
-37.42
-7.69
18.96
40.64
56.49
66.41
70.77
70.26
65.94
59.18
51.55
44.51
39.12
35.88
34.7
35.09
36.46
38.24
39.99
41.27
41.59
40.37
37.09
31.41
23.41
13.54
2.55
-8.72
-19.6
-29.82
-39.66
-49.9
-61.65
-75.87
-92.69
-110.99
-128.17
-140.64
-144.8
-138.28
-120.75
-94.13
-62.0
-28.57
2.51
28.83
49.37
64.19
73.89
79.15
80.68
79.17
75.49
70.74
66.08
62.5
60.55
60.19
60.92
62.04
62.89
63.08
62.39
60.63
57.43
52.26
44.59
34.28
21.73
7.95
-5.78
-18.3
-29.1
-38.44
-47.32
-57.17
-69.32
-84.4
-101.86
-119.67
-134.64
-143.06
-141.82
-129.41
-106.45
-75.64
-40.99
-6.67
23.93
48.79
67.15
79.19
85.55
87.05
84.66
79.61
73.33
67.3
62.72
60.22
59.76
60.77
62.43
64.01
64.97
64.99
63.71
60.76
55.69
48.23
38.5
27.06
14.8
2.66
-8.65
-18.92
-28.52
-38.37
-49.67
-63.48
-80.09
-98.47
-116.1
-129.3
-134.25
-128.24
-110.71
-83.46
-50.18
-15.27
17.25
44.52
64.98
78.21
84.55
84.95
80.79
73.8
65.78
58.3
52.41
48.63
46.93
46.94
48.09
49.68
51.0
51.31
50.01
46.58
40.78
32.62
22.47
11.03
-0.71
-11.81
-21.64
-30.17
-38.14
-46.84
-57.74
-71.75
-88.72
-106.99
-123.51
-134.47
-136.27
-126.76
-105.91
-76.03
-41.09
-5.57
26.72
53.35
73.33
86.74
94.09
96.13
93.8
88.43
81.72
75.49
71.19
69.48
70.06
71.87
73.63
74.37
73.69
71.78
69.06
65.78
61.68
56.06
48.07
37.14
23.52
8.23
-7.14
-21.09
-32.79
-42.39
-50.98
-60.21
-71.71
-86.5
-104.44
-123.98
-142.16
-155.19
-159.33
-152.07
-133.01
-104.11
-69.15
-32.66
1.38
30.32
53.11
69.86
81.23
87.9
90.46
89.54
86.07
81.31
76.79
73.8
73.03
74.36
76.86
79.32
80.68
80.44
78.68
75.83
72.2
67.66
61.63
53.35
42.39
29.0
14.21
-0.53
-13.85
-25.0
-34.13
-42.25
-50.91
-61.69
-75.67
-92.87
-111.95
-130.11
-143.64
-148.79
-142.9
-125.42
-98.2
-64.98
-30.29
1.94
29.23
50.8
67.0
78.58
86.09
89.81
89.99
87.3
82.97
78.59
75.63
74.98
76.64
79.78
83.16
85.5
86.0
84.47
81.27
77.0
72.13
66.73
60.35
52.35
42.19
29.89
16.13
2.06
-11.07
-22.46
-32.07
-40.63
-49.35
-59.45
-71.82
-86.69
-103.51
-120.94
-136.82
-148.41
-152.8
-147.7
-132.16
-107.15
-75.51
-41.28
-8.58
19.42
41.06
56.11
65.26
69.5
69.81
67.17
62.69
57.69
53.52
51.2
51.08
52.76
55.34
57.8
59.43
59.99
59.56
58.21
55.77
51.74
45.5
36.69
25.51
12.8
-0.15
-12.12
-22.43
-31.2
-39.41
-48.53
-59.94
-74.28
-90.87
-107.64
-121.39
-128.67
-126.79
-114.72
-93.48
-65.87
-35.62
-6.36
19.15
39.43
54.09
63.42
67.97
68.37
65.4
60.12
53.94
48.35
44.62
43.35
44.35
46.69
49.2
50.88
51.25
50.37
48.59
46.21
43.2
39.16
33.5
25.86
16.34
5.59
-5.4
-15.75
-25.07
-33.78
-42.98
-54.14
-68.44
-86.2
-106.42
-126.69
-143.59
-153.6
-154.02
-143.82
-124.04
-97.35
-67.3
-37.29
-9.81
13.76
32.93
47.66
58.01
64.13
66.39
65.61
63.04
60.13
58.13
57.66
58.57
60.1
61.32
61.56
60.75
59.36
58.08
57.35
56.98
56.12
53.55
48.17
39.63
28.44
15.89
3.52
-7.46
-16.64
-24.47
-31.99
-40.5
-51.12
-64.52
-80.56
-98.15
-115.13
-128.47
-134.9
-131.87
-118.4
-95.66
-66.64
-35.33
-5.49
20.3
40.9
56.31
67.02
73.51
76.14
75.29
71.74
66.7
61.65
57.84
55.93
55.76
56.51
57.12
56.77
55.13
52.35
48.92
45.2
41.25
36.72
31.04
23.73
14.67
4.25
-6.79
-17.6
-27.53
-36.35
-44.28
-51.88
-59.95
-69.28
-80.56
-94.02
-109.13
-124.35
-137.17
-144.65
-144.12
-134.16
-115.0
-88.64
-58.26
-27.35
1.07
24.94
43.23
55.73
62.75
64.99
63.43
59.31
54.03
48.91
45.0
42.87
42.6
43.83
45.94
48.21
49.96
50.62
49.73
46.98
42.17
35.34
26.7
16.73
6.05
-4.71
-15.0
-24.62
-33.74
-43.03
-53.37
-65.54
-79.67
-94.72
-108.43
-117.66
-119.31
-111.39
-93.82
-68.58
-39.15
-9.48
17.13
38.64
54.37
64.55
69.86
71.01
68.63
63.47
56.49
48.88
41.94
36.77
33.96
33.51
34.78
36.78
38.37
38.62
36.88
32.91
26.79
18.85
9.58
-0.48
-10.87
-21.25
-31.6
-42.17
-53.56
-66.43
-81.14
-97.25
-113.16
-126.17
-133.1
-131.25
-119.38
-98.32
-70.75
-40.41
-10.94
15.02
36.15
52.26
63.63
70.61
73.37
72.21
67.73
61.09
53.84
47.5
43.1
40.94
40.49
40.77
40.65
39.33
36.45
32.05
26.45
19.97
12.86
5.24
-2.82
-11.33
-20.45
-30.59
-42.44
-56.63
-73.24
-91.16
-107.86
-119.79
-123.37
-116.27
-98.28
-71.57
-39.92
-7.58
21.89
46.33
64.98
77.93
85.65
88.59
87.18
82.14
74.53
65.87
57.71
51.26
46.99
44.59
43.1
41.4
38.63
34.45
29.08
23.03
16.75
10.42
3.78
-3.67
-12.56
-23.47
-36.81
-52.63
-70.34
-88.43
-104.33
-114.78
-116.6
-107.85
-88.62
-61.23
-29.53
2.32
30.99
54.57
72.4
84.52
91.07
92.16
88.07
79.71
68.74
57.35
47.66
41.1
38.03
37.69
38.63
39.27
38.39
35.56
31.01
25.42
19.45
13.4
7.05
-0.19
-9.09
-20.23
-33.95
-50.02
-67.52
-84.69
-98.85
-106.88
-105.97
-94.64
-73.42
-44.99
-13.38
17.14
43.26
63.19
76.64
84.15
86.53
84.59
79.07
71.02
61.83
53.08
46.15
41.84
40.1
40.14
40.7
40.44
38.33
33.86
27.11
18.72
9.53
0.36
-8.39
-16.79
-25.34
-34.73
-45.59
-58.29
-72.72
-88.17
-103.08
-115.03
-121.17
-118.87
-106.7
-85.13
-56.6
-24.9
5.94
32.74
53.76
68.6
77.69
81.68
81.11
76.54
68.74
58.95
48.79
39.96
33.7
30.49
29.9
30.83
31.86
31.82
30.02
26.42
21.47
15.83
9.98
4.04
-2.19
-9.14
-17.29
-26.98
-38.46
-51.73
-66.4
-81.32
-94.49
-103.15
-104.51
-96.67
-79.45
-54.67
-25.69
3.57
29.74
50.65
65.45
74.3
77.82
76.86
72.35
65.4
57.28
49.29
42.53
37.61
34.64
33.27
32.96
33.09
33.17
32.75
31.37
28.55
23.89
17.19
8.56
-1.55
-12.47
-23.49
-34.16
-44.43
-54.74
-65.93
-78.85
-93.76
-109.82
-124.8
-135.42
-138.25
-130.91
-112.98
-86.34
-54.6
-21.98
7.85
32.52
51.02
63.44
70.42
72.81
71.61
67.93
63.05
58.18
54.22
51.52
49.88
48.74
47.53
45.92
43.89
41.6
39.14
36.27
32.44
26.94
19.32
9.61
-1.62
-13.46
-25.04
-35.87
-46.05
-56.26
-67.48
-80.52
-95.52
-111.43
-125.97
-136.01
-138.35
-130.86
-113.18
-86.93
-55.23
-21.75
10.22
38.25
60.87
77.34
87.41
91.33
89.95
84.79
77.81
71.05
66.05
63.51
63.2
64.27
65.63
66.41
66.16
64.85
62.64
59.57
55.39
49.65
41.89
31.97
20.27
7.63
-4.89
-16.44
-26.65
-35.81
-44.75
-54.59
-66.34
-80.46
-96.48
-112.79
-126.79
-135.38
-135.78
-126.42
-107.45
-80.89
-50.08
-18.75
9.82
33.46
51.16
62.86
69.06
70.5
68.18
63.31
57.31
51.52
46.93
43.97
42.49
42.03
42.08
42.33
42.64
42.78
42.36
40.76
37.28
31.52
23.47
13.64
2.83
-8.08
-18.43
-27.99
-36.92
-45.8
-55.48
-66.76
-80.04
-94.86
-109.6
-121.66
-127.95
-125.92
-114.37
-94.05
-67.38
-37.79
-8.67
17.35
38.72
54.75
65.23
70.19
69.85
64.86
56.46
46.42
36.76
29.3
25.11
24.31
26.05
28.88
31.22
31.85
30.19
26.36
20.91
14.5
7.58
0.24
-7.69
-16.56
-26.71
-38.38
-51.71
-66.54
-82.17
-97.11
-109.06
-115.26
-113.28
-101.89
-81.71
-55.17
-25.88
2.5
27.1
46.31
59.74
67.58
70.28
68.29
62.18
52.96
42.13
31.51
22.82
17.2
14.89
15.23
16.94
18.54
18.84
17.16
13.38
7.8
0.93
-6.79
-15.01
-23.57
-32.44
-41.77
-51.88
-63.23
-76.08
-90.11
-103.96
-115.16
-120.63
-117.6
-104.63
-82.31
-53.12
-20.77
10.93
39.01
61.71
78.48
89.56
95.52
97.0
94.68
89.37
82.1
74.09
66.67
60.92
57.47
56.27
56.69
57.66
58.01
56.75
53.26
47.33
39.11
28.99
17.56
5.47
-6.67
-18.47
-29.93
-41.58
-54.29
-68.94
-85.72
-103.63
-120.2
-131.97
-135.47
-128.39
-110.55
-84.05
-52.66
-20.68
8.2
31.61
48.62
59.42
64.81
65.83
63.61
59.29
54.01
48.81
44.56
41.8
40.76
41.31
43.12
45.73
48.57
50.98
52.29
51.86
49.23
44.26
37.16
28.48
18.87
8.87
-1.21
-11.46
-22.27
-34.33
-48.26
-64.22
-81.42
-97.89
-110.64
-116.39
-112.62
-98.51
-75.38
-46.32
-15.34
13.83
38.48
57.24
69.82
76.67
78.52
76.34
71.3
64.76
58.08
52.48
48.73
47.04
47.13
48.39
50.11
51.63
52.41
51.98
49.98
46.08
40.08
31.97
22.05
10.88
-0.79
-12.18
-22.8
-32.63
-42.31
-52.98
-65.79
-81.26
-98.5
-115.06
-127.32
-131.53
-125.07
-107.48
-80.65
-48.3
-14.79
16.03
41.59
60.76
73.48
80.28
81.9
79.22
73.32
65.56
57.46
50.47
45.63
43.39
43.56
45.36
47.7
49.46
49.69
47.77
43.56
37.25
29.27
20.16
10.36
0.16
-10.3
-21.07
-32.4
-44.7
-58.39
-73.53
-89.38
-104.11
-114.92
-118.74
-113.16
-97.37
-72.59
-41.83
-9.05
21.9
48.05
67.76
80.57
86.84
87.49
83.7
76.9
68.66
60.56
53.86
49.31
47.01
46.46
46.88
47.5
47.74
47.2
45.57
42.45
37.47
30.34
21.09
10.14
-1.78
-13.82
-25.31
-35.99
-46.05
-56.21
-67.46
-80.68
-96.01
-112.42
-127.43
-137.65
-139.64
-131.19
-112.16
-84.66
-52.43
-19.6
10.31
35.14
54.08
67.24
75.13
78.42
77.85
74.49
69.71
65.01
61.64
60.16
60.33
61.22
61.8
61.37
59.9
57.86
55.84
54.08
52.17
49.13
43.84
35.58
24.38
11.11
-2.83
-16.0
-27.46
-37.04
-45.35
-53.53
-62.92
-74.54
-88.66
-104.4
-119.6
-131.09
-135.5
-130.22
-114.44
-89.51
-58.64
-25.96
4.67
30.54
50.43
64.33
72.86
76.78
76.9
74.04
69.33
64.13
59.86
57.62
57.81
59.96
62.91
65.34
66.21
65.19
62.6
59.1
55.21
51.0
46.04
39.72
31.6
21.77
10.81
-0.41
-11.13
-20.96
-29.99
-38.64
-47.44
-56.92
-67.54
-79.63
-93.12
-107.26
-120.28
-129.59
-132.3
-126.18
-110.55
-86.72
-57.6
-26.92
1.87
26.34
45.25
58.35
65.94
68.65
67.24
62.81
56.69
50.34
45.06
41.63
40.22
40.4
41.43
42.55
43.28
43.31
42.55
40.85
37.94
33.42
26.96
18.5
8.39
-2.62
-13.6
-23.69
-32.49
-40.22
-47.71
-56.16
-66.63
-79.41
-93.6
-107.03
-116.69
-119.53
-113.53
-98.32
-75.43
-47.78
-18.83
8.25
31.19
48.76
60.54
66.65
67.55
64.09
57.55
49.6
42.04
36.32
33.17
32.38
33.06
34.15
34.8
34.72
33.98
32.68
30.71
27.54
22.52
15.21
5.75
-5.13
-16.29
-26.65
-35.61
-43.18
-50.04
-57.21
-65.79
-76.49
-89.36
-103.47
-116.86
-126.84
-130.58
-125.89
-111.98
-89.78
-61.74
-31.17
-1.38
25.1
46.81
63.29
74.76
81.81
85.18
85.73
84.4
82.22
80.11
78.73
78.38
78.87
79.72
80.43
80.71
80.5
79.91
78.92
77.14
73.82
68.06
59.15
46.98
32.15
15.86
-0.45
-15.53
-28.71
-39.98
-50.1
-60.38
-72.36
-87.27
-105.27
-124.91
-143.14
-156.02
-160.03
-153.42
-136.83
-113.0
-85.6
-57.9
-32.02
-8.86
11.3
28.12
41.02
49.39
53.2
53.25
51.09
48.55
47.11
47.51
49.78
53.31
57.29
60.95
63.8
65.66
66.61
66.83
66.32
64.78
61.6
56.09
47.81
36.93
24.23
10.96
-1.7
-13.02
-23.02
-32.33
-41.94
-52.78
-65.52
-80.38
-97.04
-114.58
-131.21
-144.47
-151.54
-150.0
-138.68
-118.2
-90.92
-60.28
-29.9
-2.68
19.59
36.21
47.24
53.21
54.86
53.19
49.47
45.13
41.55
39.69
39.86
41.64
44.17
46.54
48.16
48.89
48.94
48.55
47.64
45.75
42.2
36.43
28.33
18.36
7.51
-3.19
-12.89
-21.34
-28.86
-36.34
-44.89
-55.49
-68.53
-83.41
-98.37
-110.71
-117.29
-115.47
-103.89
-83.04
-55.21
-23.93
7.02
34.44
56.28
71.68
80.7
83.87
82.0
76.14
67.65
58.21
49.63
43.39
40.26
40.13
42.09
44.96
47.65
49.49
50.18
49.57
47.38
43.15
36.49
27.34
16.23
4.19
-7.6
-18.29
-27.7
-36.46
-45.74
-56.8
-70.41
-86.36
-103.21
-118.35
-128.59
-130.94
-123.49
-106.06
-80.33
-49.44
-17.13
13.2
39.07
59.2
73.3
81.66
84.94
83.94
79.7
73.51
66.83
61.04
57.1
55.32
55.32
56.23
57.17
57.6
57.38
56.64
55.4
53.28
49.5
43.15
33.66
21.21
6.8
-8.08
-21.95
-33.9
-43.93
-52.95
-62.45
-73.94
-88.33
-105.32
-123.1
-138.49
-147.69
-147.34
-135.62
-112.94
-81.88
-46.42
-10.84
21.35
47.97
68.18
82.03
90.11
93.13
91.98
87.82
82.08
76.33
71.93
69.67
69.55
70.88
72.6
73.7
73.64
72.35
70.12
67.18
63.52
58.69
52.08
43.17
31.94
18.96
5.28
-7.93
-19.8
-30.15
-39.55
-49.19
-60.54
-74.74
-92.06
-111.39
-130.15
-144.61
-150.9
-146.1
-129.3
-101.95
-67.46
-30.29
5.25
35.87
59.69
76.09
85.42
88.64
87.1
82.42
76.3
70.36
65.82
63.29
62.71
63.4
64.39
64.79
64.16
62.55
60.37
57.95
55.22
51.57
46.13
38.2
27.65
15.06
1.62
-11.39
-22.97
-32.81
-41.32
-49.6
-59.08
-70.99
-85.77
-102.53
-118.91
-131.42
-136.44
-131.32
-115.36
-90.09
-58.87
-25.87
5.08
31.28
51.4
65.32
73.56
76.89
76.1
72.03
65.74
58.48
51.64
46.39
43.44
42.82
43.99
46.11
48.27
49.75
50.0
48.58
45.11
39.3
31.12
20.91
9.45
-2.31
-13.49
-23.61
-32.8
-41.8
-51.73
-63.57
-77.59
-92.82
-106.89
-116.5
-118.31
-110.15
-91.83
-65.36
-34.33
-2.9
25.38
48.21
64.65
74.73
79.07
78.56
74.28
67.5
59.68
52.23
46.27
42.39
40.62
40.47
41.3
42.45
43.39
43.69
42.89
40.45
35.79
28.57
18.85
7.25
-5.21
-17.41
-28.53
-38.32
-47.24
-56.3
-66.72
-79.46
-94.64
-111.19
-126.69
-137.73
-140.84
-133.58
-115.47
-88.29
-55.66
-21.89
9.18
35.04
54.65
68.15
76.21
79.64
79.23
75.83
70.45
64.29
58.48
53.91
50.99
49.61
49.29
49.47
49.63
49.46
48.68
47.0
43.94
38.95
31.63
22.02
10.67
-1.4
-13.1
-23.65
-32.95
-41.62
-50.79
-61.75
-75.29
-91.25
-108.12
-123.11
-132.73
-133.74
-124.26
-104.54
-76.94
-45.33
-13.83
14.23
37.03
54.16
66.07
73.5
77.03
77.2
74.71
70.58
66.1
62.41
60.11
59.14
58.87
58.51
57.5
55.75
53.55
51.15
48.56
45.31
40.58
33.6
24.04
12.23
-0.85
-13.87
-25.71
-35.72
-44.07
-51.59
-59.56
-69.26
-81.51
-96.15
-111.75
-125.66
-134.53
-135.2
-125.78
-106.35
-79.02
-47.39
-15.41
13.52
37.19
54.62
65.76
71.12
71.59
68.33
62.77
56.45
50.77
46.65
44.46
43.97
44.63
45.84
47.2
48.52
49.66
50.37
50.13
48.26
44.09
37.28
27.99
16.89
5.01
-6.57
-17.07
-26.22
-34.36
-42.43
-51.59
-62.88
-76.63
-92.04
-106.99
-118.38
-122.93
-118.25
-103.63
-80.41
-51.58
-20.95
7.96
32.56
51.52
64.52
71.85
74.17
72.37
67.62
61.37
55.18
50.42
47.89
47.68
49.22
51.59
53.85
55.28
55.54
54.57
52.47
49.18
44.45
37.85
29.0
17.88
5.03
-8.47
-21.34
-32.6
-41.98
-50.13
-58.47
-68.59
-81.61
-97.47
-114.62
-130.14
-140.45
-142.27
-133.73
-114.98
-88.13
-56.64
-24.25
5.9
31.77
52.4
67.58
77.46
82.44
83.11
80.48
75.94
71.07
67.33
65.62
66.04
67.9
70.08
71.48
71.45
69.89
67.24
64.02
60.54
56.64
51.75
45.19
36.56
25.94
13.97
1.67
-9.99
-20.37
-29.37
-37.46
-45.51
-54.55
-65.48
-78.63
-93.42
-108.13
-120.07
-126.12
-123.71
-111.68
-90.8
-63.69
-33.96
-5.24
19.8
39.82
54.67
64.86
71.09
73.96
73.93
71.54
67.61
63.23
59.61
57.72
57.92
59.82
62.43
64.52
65.13
63.9
61.07
57.22
52.8
47.88
42.09
34.91
25.96
15.38
3.76
-8.03
-19.12
-28.96
-37.45
-44.96
-52.14
-59.74
-68.38
-78.42
-89.79
-101.81
-113.19
-122.0
-126.01
-123.23
-112.45
-93.89
-69.22
-41.29
-13.4
11.56
31.71
46.38
55.9
61.05
62.64
61.37
57.91
53.06
47.83
43.33
40.37
39.21
39.49
40.44
41.34
41.77
41.73
41.38
40.69
39.23
36.29
31.17
23.62
13.99
3.2
-7.64
-17.63
-26.44
-34.35
-42.18
-50.91
-61.4
-73.95
-88.01
-102.09
-113.89
-120.76
-120.46
-111.79
-95.06
-72.06
-45.58
-18.68
6.06
26.82
42.69
53.37
58.94
59.78
56.64
50.75
43.74
37.35
32.98
31.26
31.9
33.93
36.11
37.5
37.69
36.8
35.16
32.94
30.0
25.9
20.16
12.57
3.32
-6.99
-17.57
-27.67
-36.84
-44.97
-52.45
-60.04
-68.72
-79.35
-92.17
-106.45
-120.23
-130.68
-134.83
-130.44
-116.85
-95.2
-68.13
-39.01
-11.01
13.49
33.18
47.63
57.03
61.82
62.69
60.49
56.37
51.65
47.63
45.26
44.86
46.02
47.8
49.16
49.39
48.41
46.66
44.75
42.95
40.93
37.85
32.72
24.97
14.73
2.89
-9.26
-20.51
-30.21
-38.4
-45.78
-53.42
-62.39
-73.48
-86.83
-101.69
-116.35
-128.24
-134.51
-132.76
-121.79
-102.14
-75.98
-46.59
-17.35
9.05
31.02
48.03
60.21
67.91
71.49
71.51
68.78
64.59
60.43
57.65
56.97
58.27
60.72
63.17
64.65
64.73
63.53
61.46
58.86
55.69
51.51
45.71
37.82
27.83
16.25
3.99
-7.93
-18.8
-28.4
-37.09
-45.67
-55.15
-66.45
-80.02
-95.5
-111.49
-125.64
-135.04
-137.02
-129.93
-113.72
-89.96
-61.46
-31.5
-3.05
21.68
41.47
55.86
64.94
69.11
69.12
65.93
60.82
55.16
50.23
46.9
45.46
45.63
46.81
48.34
49.78
50.91
51.6
51.56
50.23
46.88
40.98
32.42
21.73
9.92
-1.91
-12.84
-22.55
-31.33
-39.98
-49.58
-61.09
-74.88
-90.35
-105.71
-118.09
-124.29
-121.68
-109.14
-87.6
-59.83
-29.57
-0.48
24.67
44.39
58.26
66.5
69.67
68.52
64.09
57.7
50.86
44.85
40.56
38.2
37.47
37.88
38.89
40.11
41.14
41.49
40.54
37.67
32.54
25.24
16.29
6.43
-3.64
-13.52
-23.21
-32.93
-43.21
-54.62
-67.74
-82.73
-99.01
-114.87
-127.55
-133.78
-130.8
-117.36
-94.31
-64.42
-31.63
0.06
27.55
49.04
64.01
72.87
76.53
76.13
72.92
68.14
62.96
58.35
54.93
52.93
52.24
52.51
53.34
54.3
55.05
55.2
54.35
52.03
47.85
41.62
33.4
23.52
12.53
1.02
-10.51
-21.83
-33.03
-44.63
-57.44
-72.27
-89.32
-107.66
-124.96
-137.79
-142.56
-136.67
-119.58
-93.05
-60.62
-26.52
5.58
33.19
55.24
71.64
82.74
89.02
91.03
89.54
85.66
80.78
76.29
73.23
71.98
72.22
73.21
74.08
74.25
73.57
72.2
70.28
67.62
63.59
57.31
48.12
35.97
21.67
6.64
-7.6
-20.04
-30.57
-40.06
-50.06
-62.2
-77.59
-96.29
-116.92
-136.69
-151.91
-158.81
-154.69
-138.75
-112.42
-79.03
-42.85
-7.95
22.62
47.18
65.23
77.05
83.35
85.05
83.25
79.25
74.36
69.79
66.37
64.43
63.86
64.24
65.06
65.95
66.67
66.99
66.55
64.73
60.78
54.1
44.57
32.69
19.58
6.53
-5.41
-15.84
-25.15
-34.37
-44.86
-57.78
-73.59
-91.54
-109.46
-123.99
-131.31
-128.32
-113.77
-88.82
-56.86
-22.46
9.93
37.2
57.91
72.06
80.42
83.86
83.15
79.06
72.65
65.32
58.66
53.94
51.77
51.93
53.59
55.72
57.47
58.3
57.92
56.15
52.72
47.28
39.58
29.71
18.13
5.69
-6.69
-18.28
-28.86
-38.86
-49.27
-61.27
-75.75
-92.58
-110.16
-125.55
-135.03
-135.22
-124.3
-102.69
-72.97
-39.18
-5.54
24.55
49.08
67.34
79.52
86.22
88.21
86.43
82.05
76.52
71.27
67.44
65.54
65.37
66.17
67.02
67.29
66.76
65.61
64.04
61.99
58.96
54.14
46.79
36.64
24.12
10.34
-3.38
-15.88
-26.68
-36.12
-45.33
-55.78
-68.76
-84.66
-102.51
-119.88
-133.24
-138.97
-134.42
-118.89
-93.88
-62.69
-29.47
1.94
28.84
49.92
65.03
74.64
79.44
80.16
77.62
72.93
67.44
62.56
59.41
58.45
59.4
61.36
63.22
64.18
63.95
62.7
60.73
58.11
54.42
48.97
41.11
30.69
18.28
5.04
-7.66
-18.78
-27.92
-35.45
-42.32
-49.82
-59.17
-71.15
-85.69
-101.49
-116.08
-126.18
-128.61
-121.34
-104.25
-79.24
-49.7
-19.44
8.35
31.63
49.57
62.11
69.61
72.57
71.69
67.96
62.7
57.35
53.12
50.75
50.31
51.26
52.73
53.87
54.13
53.32
51.63
49.33
46.57
43.08
38.35
31.71
22.79
11.78
-0.57
-13.09
-24.64
-34.5
-42.64
-49.72
-56.83
-65.15
-75.56
-88.27
-102.47
-116.34
-127.25
-132.4
-129.56
-117.78
-97.77
-71.7
-42.62
-13.65
12.62
34.48
51.01
61.84
67.01
66.98
62.66
55.57
47.59
40.63
36.09
34.46
35.34
37.63
40.13
41.96
42.75
42.6
41.7
40.05
37.36
33.12
26.86
18.4
7.99
-3.65
-15.6
-26.96
-37.11
-45.94
-53.88
-61.85
-70.94
-81.89
-94.73
-108.32
-120.46
-128.28
-129.08
-121.18
-104.53
-80.81
-52.92
-24.19
2.47
25.09
42.63
54.79
61.69
63.73
61.65
56.65
50.29
44.25
39.93
38.0
38.34
40.16
42.38
44.06
44.7
44.27
43.0
41.1
38.54
34.98
29.89
22.84
13.69
2.82
-8.96
-20.58
-31.01
-39.63
-46.43
-52.11
-57.91
-65.26
-75.28
-88.19
-102.93
-117.07
-127.42
-130.82
-125.16
-110.11
-87.17
-59.29
-29.86
-1.92
22.38
41.87
56.09
64.99
68.83
68.23
64.32
58.68
53.04
48.84
46.8
46.76
47.96
49.44
50.49
50.83
50.59
50.01
49.11
47.62
44.94
40.41
33.6
24.56
13.81
2.32
-8.89
-18.99
-27.69
-35.37
-42.86
-51.28
-61.58
-74.17
-88.64
-103.54
-116.5
-124.71
-125.65
-117.8
-101.3
-77.92
-50.59
-22.55
3.42
25.48
42.74
54.91
62.04
64.4
62.61
57.74
51.33
45.04
40.2
37.49
36.76
37.35
38.45
39.49
40.24
40.64
40.58
39.65
37.21
32.66
25.68
16.46
5.69
-5.65
-16.66
-26.8
-36.05
-44.91
-54.25
-65.03
-77.83
-92.48
-107.71
-121.14
-129.78
-130.77
-122.32
-104.37
-78.69
-48.5
-17.49
11.03
34.82
52.8
64.8
71.17
72.51
69.63
63.74
56.39
49.33
44.08
41.49
41.51
43.26
45.57
47.4
48.34
48.47
48.1
47.29
45.71
42.68
37.47
29.74
19.79
8.45
-3.15
-13.98
-23.48
-31.7
-39.29
-47.33
-56.95
-68.99
-83.42
-99.09
-113.63
-123.96
-126.99
-120.63
-104.57
-80.38
-51.14
-20.54
8.13
32.55
51.62
65.12
73.35
76.87
76.4
72.92
67.73
62.35
58.19
56.11
56.21
57.82
59.83
61.14
61.18
59.97
58.0
55.8
53.5
50.64
46.3
39.61
30.2
18.47
5.54
-7.18
-18.58
-28.27
-36.63
-44.65
-53.55
-64.36
-77.6
-93.05
-109.49
-124.68
-135.65
-139.34
-133.47
-117.38
-92.34
-61.32
-28.14
3.48
30.76
52.18
67.32
76.52
80.5
80.22
76.79
71.5
65.69
60.55
56.88
54.93
54.45
54.91
55.72
56.48
56.97
57.01
56.27
54.21
50.13
43.51
34.25
22.89
10.45
-1.84
-13.01
-22.72
-31.35
-39.86
-49.5
-61.26
-75.42
-91.2
-106.61
-118.73
-124.41
-121.11
-107.83
-85.52
-56.89
-25.68
4.42
30.58
51.16
65.66
74.25
77.42
75.92
70.82
63.6
56.01
49.69
45.77
44.5
45.34
47.29
49.34
50.86
51.59
51.51
50.45
48.0
43.47
36.36
26.55
14.54
1.35
-11.82
-24.0
-34.75
-44.31
-53.48
-63.41
-75.17
-89.3
-105.25
-121.18
-134.06
-140.44
-137.49
-124.04
-101.05
-71.35
-38.74
-6.95
21.26
44.32
61.69
73.36
79.65
81.09
78.58
73.43
67.22
61.48
57.33
55.21
54.87
55.62
56.7
57.58
58.06
58.19
57.89
56.76
54.09
49.04
41.08
30.31
17.57
4.19
-8.46
-19.49
-28.81
-37.11
-45.58
-55.53
-67.9
-82.95
-99.87
-116.71
-130.53
-137.94
-136.09
-123.59
-101.14
-71.49
-38.68
-6.76
21.22
43.76
60.69
72.47
79.57
82.24
80.77
75.94
69.21
62.54
57.77
55.98
57.14
60.24
63.82
66.57
67.82
67.53
66.13
64.05
61.44
57.98
53.01
45.82
36.01
23.86
10.32
-3.31
-15.77
-26.42
-35.4
-43.52
-51.95
-61.79
-73.75
-87.92
-103.5
-118.68
-130.77
-136.62
-133.5
-120.08
-97.08
-67.2
-34.43
-2.81
24.68
46.55
62.69
73.69
80.27
82.92
82.13
78.65
73.68
68.68
65.02
63.48
64.05
66.01
68.31
70.06
70.75
70.31
68.92
66.72
63.62
59.23
53.03
44.54
33.64
20.72
6.67
-7.33
-20.16
-31.17
-40.33
-48.3
-56.18
-65.2
-76.28
-89.76
-105.05
-120.5
-133.52
-141.09
-140.52
-130.28
-110.49
-83.08
-51.24
-18.69
11.28
36.29
55.12
67.54
73.98
75.33
72.72
67.55
61.33
55.55
51.39
49.42
49.51
50.93
52.7
54.01
54.44
54.01
52.83
50.83
47.62
42.54
35.01
24.93
12.84
-0.15
-12.72
-23.86
-33.21
-41.23
-49.03
-58.02
-69.36
-83.38
-99.2
-114.67
-126.7
-131.99
-128.04
-113.98
-90.88
-61.56
-29.75
0.92
27.65
48.93
64.3
73.99
78.54
78.65
75.3
69.8
63.71
58.59
55.58
54.99
56.31
58.42
60.1
60.51
59.5
57.4
54.74
51.75
48.09
43.01
35.73
25.9
13.87
0.68
-12.36
-24.12
-34.11
-42.53
-50.29
-58.66
-68.97
-82.17
-98.24
-115.83
-132.12
-143.34
-145.81
-137.22
-117.55
-89.22
-56.3
-23.22
6.52
31.0
49.73
63.08
71.57
75.58
75.47
71.94
66.32
60.35
55.81
53.89
54.77
57.61
60.94
63.33
63.9
62.64
60.15
57.21
54.29
51.21
47.26
41.52
33.29
22.49
9.71
-3.93
-17.16
-29.0
-39.02
-47.46
-55.15
-63.27
-73.04
-85.32
-100.03
-115.9
-130.38
-140.13
-141.84
-133.38
-114.53
-87.21
-54.9
-21.66
8.96
34.66
54.46
68.39
77.0
80.95
80.97
77.87
72.69
66.74
61.37
57.76
56.55
57.66
60.33
63.33
65.45
65.86
64.29
61.02
56.51
51.14
44.99
37.91
29.73
20.44
10.37
0.05
-9.95
-19.27
-27.82
-35.81
-43.65
-51.88
-61.12
-71.97
-84.93
-99.98
-116.22
-131.63
-143.21
-147.67
-142.52
-126.89
-102.11
-71.24
-38.22
-6.73
20.64
42.59
58.86
69.74
75.68
77.22
75.15
70.64
65.21
60.45
57.53
56.93
58.3
60.7
63.03
64.46
64.7
63.97
62.73
61.33
59.7
57.34
53.41
47.13
38.08
26.49
13.21
-0.51
-13.47
-24.86
-34.54
-43.02
-51.23
-60.32
-71.24
-84.54
-99.96
-116.28
-131.2
-141.69
-144.73
-138.16
-121.47
-96.05
-64.91
-31.77
-0.14
27.33
49.19
64.88
74.51
78.48
77.5
72.69
65.57
57.91
51.35
46.94
44.85
44.47
44.76
44.85
44.31
43.24
41.94
40.48
38.42
34.96
29.25
20.88
10.17
-1.93
-14.13
-25.33
-35.0
-43.36
-51.24
-59.8
-70.08
-82.69
-97.34
-112.7
-126.37
-135.33
-136.62
-128.36
-110.34
-84.28
-53.33
-21.22
8.82
34.67
55.39
70.9
81.41
87.12
88.33
85.68
80.39
74.14
68.57
64.83
63.16
62.99
63.31
63.27
62.52
61.19
59.54
57.57
54.74
50.13
42.85
32.54
19.56
4.96
-9.9
-23.86
-36.33
-47.41
-57.85
-68.73
-81.12
-95.68
-112.08
-128.88
-143.41
-152.4
-152.83
-142.96
-123.05
-95.38
-63.65
-31.92
-3.6
19.19
35.69
46.13
51.35
52.36
50.31
46.41
41.98
38.29
36.31
36.43
38.49
41.89
45.89
49.88
53.43
56.25
57.95
57.95
55.57
50.23
41.83
30.82
18.23
5.33
-6.71
-17.24
-26.36
-34.89
-44.13
-55.45
-69.51
-85.79
-102.24
-115.59
-122.19
-119.19
-105.59
-82.61
-53.47
-22.31
6.98
31.69
50.58
63.65
71.52
74.98
74.81
71.84
67.06
61.62
56.65
52.94
50.77
49.85
49.55
49.22
48.47
47.24
45.66
43.8
41.39
37.8
32.26
24.19
13.54
0.93
-12.53
-25.62
-37.43
-47.71
-56.91
-66.07
-76.36
-88.51
-102.18
-115.64
-125.92
-129.64
-124.08
-108.28
-83.56
-53.13
-21.07
8.81
33.96
53.27
66.75
74.92
78.42
77.87
73.99
67.81
60.64
53.91
48.86
46.2
45.93
47.43
49.67
51.52
52.03
50.6
47.03
41.42
34.08
25.35
15.59
5.13
-5.7
-16.59
-27.32
-37.92
-48.82
-60.67
-73.91
-88.25
-102.14
-112.86
-117.17
-112.39
-97.51
-73.69
-43.97
-12.39
17.24
42.18
61.07
73.66
80.39
81.96
79.25
73.32
65.52
57.32
50.12
44.94
42.29
42.07
43.75
46.47
49.26
51.08
51.03
48.43
42.97
34.78
24.45
12.89
1.07
-10.18
-20.49
-29.98
-39.31
-49.5
-61.61
-76.24
-93.0
-110.18
-124.84
-133.39
-132.65
-120.95
-98.82
-69.02
-35.66
-3.03
25.59
48.49
65.44
77.03
83.98
86.8
85.79
81.43
74.72
67.11
60.2
55.16
52.46
51.76
52.27
53.14
53.77
53.8
52.89
50.6
46.31
39.54
30.17
18.73
6.22
-6.17
-17.51
-27.51
-36.64
-46.02
-57.02
-70.65
-86.96
-104.49
-120.38
-130.89
-132.58
-123.39
-103.56
-75.59
-43.4
-11.22
17.69
41.49
59.74
72.82
81.32
85.76
86.6
84.53
80.59
76.12
72.37
70.17
69.64
70.23
71.08
71.39
70.79
69.32
67.28
64.83
61.68
57.15
50.39
40.88
28.76
14.94
0.82
-12.25
-23.4
-32.61
-40.59
-48.62
-58.12
-70.2
-85.25
-102.48
-119.83
-134.09
-141.72
-139.8
-127.1
-104.55
-75.09
-42.68
-11.22
16.45
38.92
55.94
67.92
75.38
78.86
78.96
76.57
72.91
69.32
66.9
66.1
66.68
67.79
68.5
68.12
66.55
64.17
61.51
58.85
55.9
51.89
45.81
37.03
25.56
12.26
-1.47
-14.2
-25.05
-34.03
-41.96
-50.16
-59.94
-72.13
-86.7
-102.56
-117.63
-129.15
-134.31
-130.98
-118.39
-97.46
-70.56
-40.91
-11.74
14.42
36.04
52.48
63.58
69.51
70.65
67.77
62.18
55.61
49.77
45.93
44.46
44.88
46.22
47.52
48.2
48.19
47.58
46.37
44.16
40.3
34.21
25.67
15.11
3.43
-8.28
-19.09
-28.58
-36.92
-44.77
-53.11
-62.95
-74.94
-89.09
-104.31
-118.52
-128.81
-132.26
-126.74
-111.73
-88.57
-60.11
-29.98
-1.55
22.77
41.79
55.34
63.82
67.9
68.34
66.0
61.94
57.41
53.57
51.24
50.64
51.29
52.33
52.83
52.2
50.41
47.81
44.79
41.46
37.45
32.1
24.73
15.19
3.92
-8.06
-19.57
-29.75
-38.37
-45.95
-53.5
-62.22
-73.06
-86.25
-100.99
-115.32
-126.34
-130.96
-126.82
-113.18
-91.27
-63.98
-34.95
-7.48
16.17
34.98
48.88
58.22
63.44
65.05
63.77
60.6
56.77
53.41
51.2
50.25
50.12
50.12
49.65
48.44
46.66
44.64
42.67
40.71
38.25
34.48
28.59
20.19
9.54
-2.46
-14.52
-25.48
-34.7
-42.38
-49.48
-57.4
-67.44
-80.32
-95.66
-111.83
-126.18
-135.49
-136.95
-128.92
-111.54
-86.73
-57.64
-27.71
0.05
23.69
42.3
55.76
64.35
68.57
69.11
66.96
63.36
59.67
57.01
55.96
56.43
57.79
59.23
60.05
60.01
59.24
58.03
56.55
54.56
51.43
46.38
38.82
28.69
16.59
3.65
-8.89
-20.09
-29.65
-37.98
-46.13
-55.36
-66.74
-80.71
-96.59
-112.5
-125.52
-132.41
-130.51
-118.72
-97.87
-70.58
-40.39
-10.79
15.65
37.5
54.32
66.19
73.36
76.19
75.31
71.77
66.98
62.37
59.02
57.32
56.97
57.24
57.44
57.2
56.51
55.55
54.36
52.57
49.53
44.49
37.02
27.21
15.72
3.54
-8.32
-19.16
-28.76
-37.42
-45.9
-55.22
-66.31
-79.64
-94.67
-109.67
-121.78
-127.78
-125.1
-112.75
-91.82
-65.09
-36.18
-8.38
16.07
36.14
51.64
62.62
69.17
71.38
69.69
65.05
58.95
52.95
48.31
45.62
44.76
45.12
45.98
46.76
47.05
46.59
45.07
42.08
37.24
30.31
21.44
11.18
0.34
-10.28
-20.2
-29.39
-38.36
-47.93
-58.98
-71.99
-86.54
-101.07
-112.98
-119.22
-117.16
-105.5
-84.82
-57.48
-26.95
3.14
29.86
51.38
66.97
76.66
80.91
80.48
76.43
70.11
63.06
56.68
51.91
48.95
47.44
46.7
46.13
45.42
44.52
43.39
41.7
38.89
34.21
27.17
17.75
6.53
-5.49
-17.23
-27.93
-37.39
-46.02
-54.71
-64.54
-76.36
-90.34
-105.58
-120.01
-130.65
-134.43
-129.06
-113.91
-90.29
-61.19
-30.34
-1.25
23.61
43.11
57.13
66.2
71.0
72.17
70.42
66.65
61.98
57.57
54.34
52.68
52.36
52.67
52.84
52.37
51.18
49.46
47.38
44.78
41.12
35.73
28.16
18.47
7.34
-4.19
-15.12
-24.93
-33.77
-42.51
-52.34
-64.32
-78.82
-95.08
-111.04
-123.66
-129.68
-126.57
-113.45
-91.41
-63.26
-32.68
-3.15
22.79
43.85
59.71
70.52
76.54
78.07
75.68
70.45
63.98
58.08
54.23
53.11
54.4
57.01
59.66
61.35
61.76
61.08
59.74
57.9
55.26
51.09
44.57
35.25
23.36
9.83
-4.0
-16.86
-27.98
-37.31
-45.46
-53.47
-62.51
-73.53
-86.94
-102.33
-118.28
-132.35
-141.51
-142.89
-134.66
-116.71
-90.75
-59.97
-28.01
1.8
27.12
46.69
60.24
68.06
70.85
69.57
65.4
59.73
53.95
49.27
46.41
45.48
46.05
47.35
48.62
49.36
49.44
48.9
47.7
45.48
41.63
35.54
26.95
16.21
4.24
-7.73
-18.69
-28.13
-36.28
-43.99
-52.47
-62.85
-75.68
-90.5
-105.53
-117.86
-124.14
-121.52
-108.73
-86.57
-57.82
-26.35
3.98
30.25
50.9
65.52
74.37
77.97
76.94
72.18
64.98
57.01
49.97
45.1
42.84
42.74
43.78
44.89
45.37
45.08
44.21
42.97
41.23
38.44
33.81
26.72
17.04
5.28
-7.51
-20.1
-31.47
-41.2
-49.53
-57.39
-66.02
-76.68
-89.99
-105.64
-121.97
-136.2
-145.01
-145.38
-135.6
-115.89
-88.39
-56.55
-24.16
5.62
30.76
50.42
64.56
73.47
77.6
77.49
74.08
68.73
63.06
58.59
56.23
56.1
57.53
59.52
61.14
61.91
61.81
61.11
60.02
58.42
55.84
51.55
44.88
35.57
23.95
10.87
-2.45
-14.88
-25.74
-35.0
-43.35
-51.94
-62.06
-74.69
-90.04
-107.15
-123.86
-137.09
-143.51
-140.54
-127.21
-104.5
-75.11
-42.75
-11.09
17.03
39.95
57.14
68.74
75.24
77.21
75.38
70.82
64.95
59.44
55.73
54.56
55.77
58.37
61.05
62.72
62.98
62.08
60.69
59.35
58.14
56.54
53.61
48.33
40.02
28.65
14.95
0.19
-14.24
-27.26
-38.44
-48.16
-57.4
-67.4
-79.2
-93.24
-109.03
-125.01
-138.66
-146.98
-147.21
-137.65
-118.34
-91.15
-59.32
-26.58
3.79
29.57
49.7
63.98
72.7
76.36
75.64
71.62
65.76
59.77
55.22
53.07
53.37
55.38
57.88
59.77
60.45
59.93
58.56
56.64
54.05
50.24
44.48
36.28
25.71
13.47
0.7
-11.46
-22.23
-31.43
-39.54
-47.46
-56.29
-67.02
-80.19
-95.5
-111.55
-125.83
-135.17
-136.51
-127.9
-109.21
-82.33
-50.68
-18.22
11.5
35.99
54.13
65.79
71.54
72.24
68.93
62.79
55.19
47.61
41.41
37.6
36.57
38.04
41.13
44.68
47.49
48.66
47.61
44.11
38.21
30.16
20.38
9.47
-1.95
-13.33
-24.39
-35.28
-46.54
-58.96
-73.17
-89.14
-105.79
-120.85
-131.25
-133.86
-126.57
-108.99
-82.79
-51.24
-18.37
12.1
37.52
56.58
69.17
75.88
77.58
75.2
69.67
62.01
53.44
45.24
38.63
34.36
32.56
32.73
33.83
34.67
34.24
31.88
27.34
20.73
12.35
2.56
-8.27
-19.87
-32.01
-44.62
-57.76
-71.8
-87.18
-104.19
-122.45
-140.51
-155.69
-164.6
-164.03
-152.21
-129.49
-98.46
-63.26
-28.33
2.79
28.08
47.03
60.1
68.04
71.51
71.13
67.68
62.38
56.92
53.02
51.96
54.14
58.9
64.8
70.14
73.56
74.31
72.35
67.98
61.59
53.4
43.46
31.89
19.01
5.29
-8.84
-23.41
-39.01
-56.57
-76.66
-98.67
-120.32
-137.88
-147.14
-144.91
-130.1
-104.19
-70.77
-34.33
0.97
32.21
57.96
77.98
92.66
102.63
108.45
110.72
110.2
107.91
104.97
102.39
100.81
100.34
100.58
100.88
100.61
99.38
96.95
93.12
87.58
79.86
69.56
56.66
41.72
25.83
10.23
-4.16
-17.13
-29.28
-41.81
-56.14
-73.19
-92.93
-113.93
-133.35
-147.46
-152.56
-146.23
-128.18
-100.49
-67.0
-32.08
0.54
28.64
51.43
69.14
82.3
91.43
96.96
99.44
99.63
98.46
96.82
95.3
94.05
92.82
91.18
88.73
85.35
81.21
76.68
72.1
67.43
62.16
55.42
46.4
34.79
21.11
6.54
-7.54
-20.12
-31.04
-41.01
-51.18
-62.74
-76.34
-91.83
-108.09
-123.1
-134.18
-138.43
-133.49
-118.34
-93.79
-62.45
-28.14
5.27
34.7
58.46
76.06
87.7
93.71
94.38
90.08
81.72
70.95
59.92
50.77
45.0
42.99
44.09
46.92
50.03
52.28
52.98
51.83
48.71
43.58
36.6
28.15
18.87
9.56
0.77
-7.32
-15.11
-23.4
-33.05
-44.51
-57.43
-70.43
-81.27
-87.25
-85.94
-75.86
-56.97
-30.86
-0.37
31.05
60.2
84.68
103.24
115.56
121.92
122.89
119.19
111.81
102.14
91.83
82.49
75.12
69.73
65.33
60.44
53.76
44.77
33.81
21.83
9.78
-1.84
-13.16
-24.6
-36.42
-48.34
-59.59
-69.36
-77.37
-84.15
-90.88
-98.51
-106.96
-114.53
-118.32
-115.27
-103.5
-83.25
-56.97
-28.51
-1.83
20.12
36.0
46.04
51.41
53.68
54.29
54.38
54.72
55.79
57.7
60.18
62.58
63.94
63.33
60.14
54.35
46.48
37.36
27.7
17.83
7.57
-3.6
-16.22
-30.59
-46.7
-64.2
-82.63
-101.47
-120.4
-139.19
-157.49
-174.58
-189.05
-198.83
-201.62
-195.53
-179.91
-155.66
-125.14
-91.45
-57.65
-26.16
1.49
24.43
42.26
54.87
62.5
65.81
65.8
63.7
60.72
57.93
56.21
56.12
57.82
60.98
64.72
67.91
69.59
69.27
67.05
63.4
58.76
53.23
46.52
38.18
27.89
15.63
1.54
-14.22
-31.7
-50.93
-71.48
-92.08
-110.4
-123.46
-128.5
-123.91
-110.01
-88.99
-64.3
-39.51
-17.36
0.87
15.11
25.96
33.97
39.28
41.71
41.11
37.89
33.12
28.33
25.01
23.96
25.01
27.06
28.66
28.57
26.32
22.22
17.11
11.86
6.97
2.44
-2.21
-7.62
-14.45
-23.26
-34.34
-47.57
-62.08
-76.15
-87.34
-93.07
-91.5
-82.18
-66.38
-46.63
-25.82
-6.36
10.43
24.25
35.34
43.91
49.86
52.77
52.41
49.01
43.43
36.96
30.92
26.32
23.59
22.65
23.03
23.99
24.69
24.36
22.41
18.68
13.48
7.49
1.46
-4.2
-9.58
-15.32
-22.27
-31.21
-42.49
-55.92
-70.64
-85.05
-96.84
-103.38
-102.42
-92.96
-75.97
-54.22
-31.5
-11.19
4.85
16.7
25.81
33.87
41.76
49.18
55.04
58.31
58.65
56.71
53.7
50.81
48.68
47.29
46.09
44.4
41.71
37.84
32.85
26.87
20.0
12.26
3.68
-5.59
-15.23
-24.85
-34.23
-43.43
-52.89
-63.1
-74.12
-85.13
-94.33
-99.27
-97.62
-88.05
-70.81
-47.79
-21.96
3.57
26.35
45.14
59.88
71.24
80.05
86.8
91.53
93.95
93.8
91.17
86.62
81.05
75.36
70.18
65.72
61.78
57.84
53.37
47.85
41.01
32.83
23.53
13.58
3.5
-6.27
-15.49
-24.26
-32.99
-42.26
-52.62
-64.27
-76.67
-88.4
-97.19
-100.43
-96.02
-83.23
-63.17
-38.63
-13.23
9.72
28.17
41.63
50.89
57.16
61.39
63.91
64.6
63.34
60.42
56.69
53.31
51.3
51.13
52.51
54.61
56.33
56.81
55.6
52.77
48.7
43.82
38.37
32.26
25.19
16.84
7.13
-3.72
-15.26
-26.99
-38.42
-48.95
-57.79
-63.81
-65.87
-63.15
-55.69
-44.5
-31.33
-18.14
-6.4
3.11
10.3
15.33
18.37
19.4
18.37
15.47
11.24
6.58
2.48
-0.25
-1.27
-0.71
0.85
2.67
3.98
4.2
2.99
0.25
-3.91
-9.19
-15.18
-21.37
-27.34
-32.8
-37.91
-43.2
-49.52
-57.59
-67.61
-78.72
-89.02
-95.84
-96.58
-89.55
-74.68
-53.59
-29.15
-4.63
17.27
34.95
48.01
56.9
62.44
65.39
66.27
65.43
63.17
59.85
55.88
51.66
47.49
43.52
39.84
36.45
33.26
30.06
26.45
21.95
16.16
9.0
0.77
-7.82
-16.04
-23.32
-29.56
-35.08
-40.49
-46.47
-53.52
-61.75
-70.73
-79.39
-85.98
-88.43
-84.85
-74.22
-56.93
-34.84
-10.8
12.21
31.94
47.34
58.45
66.02
70.84
73.49
74.28
73.44
71.34
68.51
65.51
62.74
60.26
57.83
55.07
51.75
47.89
43.75
39.58
35.41
30.92
25.54
18.74
10.35
0.73
-9.27
-18.69
-26.78
-33.33
-38.78
-44.07
-50.31
-58.38
-68.46
-79.79
-90.64
-98.57
-101.16
-96.75
-85.05
-67.38
-46.24
-24.62
-5.09
10.83
22.75
31.17
36.94
40.76
43.02
43.86
43.42
42.03
40.21
38.58
37.58
37.36
37.76
38.35
38.66
38.27
36.84
34.19
30.23
25.02
18.83
12.07
5.25
-1.16
-6.91
-12.09
-17.12
-22.68
-29.41
-37.61
-46.85
-55.8
-62.41
-64.32
-59.66
-47.73
-29.34
-6.68
17.32
39.84
58.83
73.26
82.94
88.16
89.28
86.8
81.41
74.16
66.39
59.45
54.19
50.77
48.67
47.01
45.0
42.15
38.28
33.26
26.85
18.76
8.83
-2.7
-15.17
-27.67
-39.42
-50.04
-59.68
-68.93
-78.52
-89.14
-101.08
-113.97
-126.66
-137.2
-143.25
-142.69
-134.4
-118.71
-97.48
-73.59
-50.16
-29.71
-13.77
-2.82
3.44
5.74
5.01
2.34
-1.0
-3.6
-4.23
-2.14
2.65
9.34
16.63
23.28
28.47
32.08
34.41
35.83
36.47
36.07
34.27
30.91
26.23
20.88
15.61
10.9
6.73
2.5
-2.74
-9.94
-19.7
-31.84
-45.19
-57.65
-66.48
-69.05
-63.49
-49.41
-28.05
-2.08
25.15
50.44
71.4
86.84
96.63
101.36
102.01
99.63
95.25
89.8
84.11
78.79
74.09
69.96
66.06
62.06
57.81
53.36
48.88
44.4
39.65
34.11
27.26
18.78
8.87
-1.88
-12.65
-22.69
-31.53
-39.1
-45.73
-52.07
-58.94
-67.1
-76.85
-87.67
-97.98
-105.4
-107.36
-102.02
-88.93
-69.4
-46.05
-22.04
-0.2
17.65
30.82
39.5
44.32
46.01
45.2
42.53
38.65
34.39
30.57
27.88
26.68
26.9
28.07
29.41
30.12
29.55
27.41
23.76
18.95
13.4
7.45
1.24
-5.26
-12.19
-19.63
-27.65
-36.32
-45.7
-55.74
-66.02
-75.43
-82.23
-84.4
-80.33
-69.55
-53.06
-33.12
-12.58
5.97
20.85
31.39
37.73
40.29
39.53
35.87
29.82
22.16
14.0
6.52
0.76
-2.65
-3.65
-2.63
-0.36
2.25
4.31
5.09
4.18
1.55
-2.4
-6.98
-11.4
-15.14
-18.18
-21.11
-25.08
-31.4
-41.06
-54.27
-69.99
-86.0
-99.31
-106.94
-106.76
-98.18
-82.27
-61.38
-38.39
-16.04
3.72
19.76
31.69
39.62
43.97
45.44
44.89
43.3
41.51
40.05
39.0
38.09
36.95
35.35
33.4
31.5
30.07
29.29
28.89
28.25
26.61
23.42
18.52
12.21
5.02
-2.52
-10.06
-17.53
-25.07
-32.99
-41.58
-51.02
-61.1
-71.07
-79.54
-84.71
-84.87
-78.85
-66.56
-49.05
-28.29
-6.66
13.65
31.08
44.82
54.72
61.06
64.28
64.85
63.24
59.92
55.47
50.58
45.99
42.35
40.05
39.18
39.49
40.49
41.55
41.96
41.08
38.44
33.81
27.27
19.22
10.23
0.89
-8.36
-17.38
-26.39
-35.8
-46.04
-57.11
-68.27
-77.89
-83.75
-83.6
-75.97
-60.83
-39.8
-15.72
8.16
29.13
45.51
56.86
63.53
66.26
65.83
62.94
58.32
52.81
47.33
42.66
39.26
37.21
36.23
35.93
35.88
35.79
35.33
34.21
32.13
28.92
24.57
19.28
13.33
6.98
0.34
-6.63
-14.13
-22.46
-31.9
-42.46
-53.63
-64.17
-72.2
-75.53
-72.38
-62.03
-45.22
-24.05
-1.42
19.82
37.55
50.69
59.06
63.05
63.21
60.09
54.3
46.68
38.43
30.91
25.33
22.34
21.79
22.76
23.93
24.12
22.68
19.62
15.45
10.74
5.75
0.38
-5.78
-13.17
-22.01
-32.19
-43.24
-54.32
-64.24
-71.45
-74.22
-71.06
-61.2
-45.02
-24.14
-1.09
21.4
41.05
56.39
66.81
72.3
73.14
69.83
63.19
54.38
44.93
36.42
30.12
26.56
25.38
25.5
25.55
24.35
21.25
16.28
9.95
2.98
-4.04
-10.86
-17.6
-24.69
-32.69
-42.08
-53.0
-65.07
-77.17
-87.5
-93.84
-94.14
-87.14
-72.95
-53.13
-30.3
-7.4
13.0
29.31
40.93
48.04
51.18
50.97
47.96
42.81
36.35
29.61
23.68
19.41
17.14
16.52
16.65
16.39
14.83
11.59
6.89
1.38
-4.22
-9.52
-14.53
-19.65
-25.44
-32.45
-41.03
-51.23
-62.6
-74.12
-84.06
-90.28
-90.72
-84.14
-70.64
-51.83
-30.39
-9.28
9.12
23.5
33.67
40.15
43.65
44.71
43.66
40.77
36.43
31.31
26.23
21.94
18.85
16.91
15.72
14.65
13.25
11.36
9.17
7.03
5.2
3.64
1.97
-0.49
-4.42
-10.32
-18.44
-28.68
-40.53
-52.99
-64.53
-73.15
-76.73
-73.61
-63.28
-46.77
-26.47
-5.52
13.15
27.56
37.07
42.14
43.84
43.29
41.3
38.34
34.72
30.78
27.04
24.01
22.13
21.46
21.64
22.03
21.95
20.96
19.08
16.82
14.87
13.62
12.82
11.39
7.78
0.49
-11.3
-27.34
-46.42
-66.64
-85.87
-101.99
-113.0
-117.18
-113.36
-101.36
-82.27
-58.45
-33.01
-9.05
11.1
26.26
36.22
41.44
42.61
40.52
36.12
30.53
25.11
21.14
19.54
20.56
23.67
27.8
31.64
34.08
34.51
32.92
29.72
25.51
20.76
15.66
10.12
3.92
-3.26
-11.67
-21.35
-31.97
-42.58
-51.58
-56.9
-56.57
-49.35
-35.28
-15.79
6.57
28.9
48.62
64.0
74.25
79.31
79.6
75.72
68.47
58.92
48.44
38.56
30.65
25.48
23.01
22.39
22.28
21.46
19.25
15.68
11.34
6.91
2.74
-1.25
-5.55
-10.85
-17.68
-26.35
-36.79
-48.42
-60.07
-69.95
-75.93
-76.05
-69.21
-55.65
-37.05
-16.06
4.49
22.26
35.84
44.75
49.1
49.34
46.1
40.21
32.74
24.97
18.17
13.3
10.84
10.63
12.0
14.05
15.86
16.76
16.38
14.68
11.78
7.88
3.14
-2.37
-8.63
-15.71
-23.71
-32.73
-42.66
-52.98
-62.5
-69.44
-71.85
-68.23
-58.17
-42.59
-23.58
-3.64
14.96
30.76
43.09
51.83
57.02
58.71
57.02
52.34
45.6
38.11
31.32
26.35
23.64
22.86
23.09
23.23
22.29
19.79
15.73
10.56
4.91
-0.69
-5.95
-10.94
-16.04
-21.87
-29.04
-37.94
-48.47
-59.79
-70.28
-77.79
-80.13
-75.74
-64.34
-47.05
-26.21
-4.64
15.07
31.17
42.91
50.24
53.48
53.01
49.25
42.83
34.75
26.38
19.22
14.41
12.35
12.58
13.97
15.16
15.13
13.42
10.24
6.12
1.65
-2.85
-7.38
-12.23
-17.81
-24.48
-32.53
-41.92
-52.15
-62.05
-69.9
-73.65
-71.53
-62.69
-47.57
-27.91
-6.24
14.82
33.17
47.54
57.37
62.59
63.39
60.17
53.74
45.34
36.57
29.07
24.06
21.96
22.27
23.82
25.2
25.22
23.26
19.37
14.12
8.25
2.36
-3.32
-9.04
-15.41
-23.1
-32.58
-43.76
-55.74
-66.83
-74.86
-77.6
-73.5
-62.18
-44.64
-23.04
-0.22
21.05
38.6
51.21
58.58
61.04
59.36
54.46
47.37
39.25
31.3
24.64
20.03
17.67
17.07
17.25
17.01
15.4
12.03
7.12
1.31
-4.65
-10.32
-15.6
-20.82
-26.45
-33.01
-40.85
-50.09
-60.41
-70.95
-80.16
-85.95
-86.17
-79.33
-65.19
-45.12
-21.73
1.83
22.79
39.45
51.3
58.72
62.47
63.29
61.69
58.1
53.06
47.37
41.97
37.8
35.45
34.99
36.0
37.7
39.14
39.5
38.25
35.22
30.67
25.13
19.29
13.75
8.95
4.96
1.38
-2.7
-8.57
-17.52
-30.26
-46.31
-63.76
-79.5
-90.08
-92.89
-87.02
-73.68
-55.72
-36.66
-19.6
-6.44
2.21
6.73
8.0
6.84
4.01
0.19
-3.8
-7.03
-8.56
-7.78
-4.7
0.01
5.12
9.29
11.52
11.47
9.54
6.61
3.65
1.27
-0.46
-1.98
-3.99
-7.16
-11.9
-18.28
-26.04
-34.5
-42.53
-48.53
-50.69
-47.4
-37.86
-22.48
-2.88
18.49
39.1
57.0
71.18
81.51
88.33
92.01
92.68
90.29
84.89
76.92
67.32
57.34
48.17
40.59
34.72
30.15
26.2
22.39
18.58
15.01
12.08
10.04
8.82
7.97
6.77
4.42
0.21
-6.27
-14.94
-25.12
-35.39
-43.69
-47.74
-45.6
-36.25
-20.05
1.26
24.93
47.85
67.18
80.81
87.66
87.57
81.23
69.95
55.44
39.56
24.05
10.33
-0.63
-8.4
-13.12
-15.39
-16.16
-16.49
-17.3
-19.09
-21.86
-25.2
-28.61
-31.79
-34.84
-38.23
-42.55
-48.35
-55.83
-64.86
-74.76
-84.32
-91.75
-94.86
-91.56
-80.57
-62.0
-37.58
-10.3
16.42
39.66
57.66
69.92
76.79
78.97
77.02
71.38
62.47
51.02
38.07
24.9
12.64
2.01
-6.78
-14.01
-20.2
-25.84
-31.26
-36.56
-41.71
-46.61
-51.23
-55.67
-60.12
-64.87
-70.22
-76.39
-83.46
-91.17
-98.89
-105.45
-109.37
-109.1
-103.53
-92.4
-76.58
-57.89
-38.63
-21.0
-6.62
3.74
10.01
12.55
11.88
8.54
3.2
-3.24
-9.58
-14.51
-16.91
-16.19
-12.57
-6.96
-0.7
4.85
8.74
10.65
10.85
9.97
8.64
7.24
5.71
3.68
0.56
-4.24
-11.11
-20.07
-30.55
-41.25
-50.18
-54.98
-53.61
-44.97
-29.45
-8.87
13.98
36.18
55.32
69.9
79.32
83.6
83.09
78.43
70.6
60.96
51.16
42.84
37.18
34.55
34.42
35.54
36.42
35.86
33.32
29.0
23.58
17.86
12.41
7.28
2.14
-3.66
-10.79
-19.68
-30.33
-42.05
-53.37
-62.19
-66.2
-63.54
-53.47
-36.75
-15.54
7.25
28.68
46.52
59.48
67.11
69.52
67.15
60.74
51.45
40.91
31.0
23.41
19.14
18.2
19.54
21.57
22.66
21.72
18.46
13.33
7.19
0.86
-5.13
-10.78
-16.53
-23.13
-31.34
-41.62
-53.73
-66.53
-77.94
-85.38
-86.44
-79.68
-65.18
-44.62
-20.81
3.1
24.38
41.21
52.8
59.16
60.8
58.5
53.21
46.04
38.21
31.0
25.46
22.24
21.36
22.16
23.48
24.0
22.66
19.01
13.31
6.33
-0.96
-7.86
-14.12
-20.03
-26.17
-33.25
-41.84
-52.15
-63.85
-75.85
-86.3
-92.8
-93.01
-85.37
-69.76
-47.75
-22.2
3.52
26.44
44.64
57.4
64.87
67.71
66.72
62.72
56.63
49.51
42.51
36.71
32.91
31.33
31.66
33.05
34.4
34.63
32.98
29.21
23.57
16.66
9.17
1.67
-5.58
-12.62
-19.7
-27.18
-35.51
-45.06
-55.99
-67.9
-79.62
-89.12
-93.88
-91.57
-80.86
-62.09
-37.35
-9.96
16.44
38.83
55.47
65.96
70.91
71.45
68.81
64.14
58.45
52.66
47.54
43.69
41.32
40.28
40.07
40.09
39.72
38.57
36.4
33.02
28.33
22.2
14.68
6.0
-3.28
-12.46
-20.85
-28.03
-34.02
-39.35
-44.92
-51.78
-60.75
-71.94
-84.43
-96.09
-103.94
-104.93
-96.98
-79.82
-55.32
-27.01
0.96
25.09
43.31
55.14
61.34
63.13
61.78
58.3
53.63
48.72
44.5
41.72
40.65
40.98
42.02
42.92
43.1
42.32
40.69
38.31
35.17
30.99
25.45
18.39
10.02
0.9
-8.18
-16.53
-23.85
-30.34
-36.71
-43.9
-52.65
-63.03
-74.05
-83.69
-89.24
-88.15
-78.89
-61.65
-38.46
-12.62
12.28
33.3
48.8
58.45
62.83
62.91
59.64
53.95
46.84
39.52
33.32
29.37
28.23
29.7
32.8
36.13
38.28
38.24
35.57
30.41
23.37
15.25
6.89
-1.06
-8.29
-14.87
-21.23
-28.01
-35.9
-45.34
-56.14
-67.35
-77.09
-83.01
-82.77
-74.84
-59.15
-37.2
-11.85
13.49
35.66
52.42
62.77
66.84
65.57
60.31
52.56
43.75
35.15
27.79
22.38
19.24
18.27
19.01
20.66
22.29
22.94
21.83
18.47
12.8
5.14
-3.83
-13.28
-22.42
-30.67
-37.71
-43.62
-48.87
-54.27
-60.81
-69.3
-79.84
-91.36
-101.55
-107.29
-105.68
-95.07
-75.8
-50.27
-22.15
4.72
27.35
44.16
54.95
60.44
61.72
59.89
55.96
50.84
45.39
40.42
36.57
34.2
33.31
33.55
34.36
35.03
34.91
33.51
30.53
25.96
19.95
12.87
5.14
-2.8
-10.55
-17.85
-24.62
-31.06
-37.69
-45.28
-54.45
-65.34
-77.01
-87.45
-93.84
-93.45
-84.62
-67.51
-44.11
-17.72
8.06
30.28
47.22
58.43
64.33
65.84
64.0
59.85
54.41
48.69
43.57
39.73
37.45
36.59
36.68
37.04
37.06
36.23
34.33
31.22
26.9
21.33
14.57
6.78
-1.71
-10.4
-18.83
-26.62
-33.76
-40.63
-47.89
-56.32
-66.26
-77.25
-87.74
-95.28
-97.15
-91.29
-77.1
-55.87
-30.44
-4.42
18.95
37.5
50.42
57.98
60.99
60.39
57.01
51.74
45.56
39.6
34.92
32.23
31.7
32.86
34.83
36.6
37.28
36.31
33.47
28.87
22.86
15.93
8.56
1.19
-5.9
-12.6
-19.06
-25.66
-33.01
-41.72
-52.08
-63.62
-74.88
-83.51
-86.87
-82.82
-70.64
-51.31
-27.39
-2.22
20.97
39.85
53.25
61.04
63.74
62.1
57.05
49.65
41.23
33.3
27.3
24.18
24.07
26.22
29.24
31.58
32.04
30.05
25.67
19.46
12.15
4.44
-3.11
-10.19
-16.78
-23.21
-30.06
-38.05
-47.74
-59.03
-70.93
-81.49
-88.14
-88.45
-80.93
-65.65
-44.3
-19.81
4.48
25.65
41.76
52.02
56.61
56.33
52.29
45.77
38.06
30.49
24.16
19.86
17.89
17.97
19.4
21.19
22.38
22.17
20.16
16.29
10.82
4.21
-3.05
-10.51
-17.88
-24.98
-31.81
-38.53
-45.5
-53.27
-62.37
-72.91
-84.19
-94.36
-100.75
-100.55
-91.84
-74.42
-50.1
-22.18
5.54
29.81
48.7
61.67
69.15
72.06
71.4
68.08
63.02
57.17
51.49
46.78
43.52
41.77
41.21
41.3
41.41
40.97
39.52
36.72
32.38
26.47
19.14
10.78
1.88
-7.0
-15.38
-22.97
-29.76
-36.09
-42.64
-50.26
-59.6
-70.55
-81.94
-91.43
-96.05
-93.14
-81.36
-61.34
-35.65
-7.99
17.91
39.24
54.63
64.03
68.24
68.39
65.63
61.05
55.69
50.54
46.45
43.89
42.9
43.05
43.72
44.28
44.29
43.53
41.86
39.07
34.87
28.97
21.28
12.08
2.04
-7.95
-17.06
-24.85
-31.42
-37.4
-43.76
-51.49
-61.22
-72.8
-85.02
-95.67
-101.92
-101.17
-91.9
-74.33
-50.51
-23.71
2.43
24.94
42.01
53.11
58.62
59.41
56.56
51.27
44.87
38.73
34.06
31.6
31.42
32.91
35.07
36.88
37.68
37.25
35.74
33.36
30.16
25.95
20.48
13.61
5.55
-3.15
-11.76
-19.61
-26.28
-31.73
-36.4
-41.07
-46.76
-54.34
-64.06
-75.06
-85.24
-91.68
-91.45
-82.74
-65.59
-42.0
-15.35
10.67
33.0
49.82
60.6
65.68
65.84
62.09
55.53
47.46
39.36
32.65
28.42
27.13
28.43
31.29
34.33
36.27
36.22
33.94
29.72
24.22
18.1
11.91
5.87
-0.02
-5.94
-12.11
-18.81
-26.33
-34.95
-44.68
-54.96
-64.44
-71.02
-72.4
-66.8
-53.74
-34.41
-11.39
12.03
32.82
48.9
59.35
64.24
64.23
60.27
53.41
44.84
35.87
27.81
21.71
18.14
17.06
17.83
19.52
21.07
21.57
20.4
17.2
12.03
5.21
-2.66
-10.87
-18.79
-26.04
-32.55
-38.61
-44.76
-51.72
-60.15
-70.38
-82.06
-93.85
-103.48
-108.2
-105.52
-94.18
-74.65
-49.23
-21.37
5.19
27.45
43.74
53.78
58.37
58.84
56.55
52.64
48.0
43.35
39.32
36.38
34.86
34.66
35.35
36.25
36.63
35.94
33.82
30.18
25.03
18.53
10.96
2.75
-5.65
-13.77
-21.33
-28.37
-35.18
-42.36
-50.59
-60.35
-71.52
-83.01
-92.76
-97.99
-96.09
-85.54
-66.64
-41.63
-14.1
12.11
33.98
49.89
59.68
64.17
64.56
62.01
57.56
52.18
46.85
42.42
39.5
38.25
38.31
39.03
39.64
39.47
38.08
35.19
30.7
24.62
17.12
8.58
-0.52
-9.59
-18.16
-25.96
-32.94
-39.42
-45.99
-53.4
-62.24
-72.53
-83.32
-92.56
-97.53
-95.6
-85.25
-66.77
-42.26
-15.1
11.07
33.32
49.93
60.51
65.57
66.11
63.26
58.14
51.87
45.56
40.21
36.56
34.91
35.05
36.3
37.77
38.53
37.9
35.55
31.43
25.69
18.6
10.52
1.93
-6.59
-14.46
-21.31
-27.09
-32.2
-37.42
-43.69
-51.78
-61.83
-73.05
-83.58
-90.76
-91.8
-84.68
-68.91
-45.96
-18.88
8.49
32.62
51.12
63.09
68.89
69.56
66.37
60.53
53.17
45.46
38.56
33.52
30.96
30.86
32.56
34.93
36.75
37.06
35.32
31.49
25.92
19.11
11.68
4.14
-3.11
-9.88
-16.25
-22.55
-29.37
-37.32
-46.78
-57.56
-68.57
-77.83
