BVP
-0.49
-0.38
-0.36
-0.75
-1.74
-3.31
-5.21
-7.17
-9.01
-10.71
-12.38
-14.14
-16.07
-18.1
-20.09
-21.84
-23.2
-24.24
-24.99
-25.42
-25.35
-24.48
-22.57
-19.52
-15.52
-10.92
-6.25
-1.95
1.73
4.72
7.09
8.96
10.48
11.72
12.75
13.42
13.55
13.04
11.98
10.63
9.36
8.49
8.26
8.71
9.22
9.05
7.49
4.34
-0.09
-5.02
-9.56
-12.88
-14.56
-15.64
-17.62
-21.79
-28.56
-37.1
-45.8
-52.85
-56.74
-56.8
-54.82
-53.39
-55.02
-61.14
-71.63
-85.32
-100.57
-115.39
-127.49
-136.18
-140.94
-141.72
-139.32
-135.91
-135.18
-141.23
-156.64
-168.8
-165.62
-138.96
-90.28
-29.61
30.87
82.56
122.26
151.13
172.36
187.13
195.39
196.46
190.56
179.44
165.96
153.17
143.55
138.46
136.5
135.22
132.13
125.95
116.92
106.47
96.39
88.24
82.87
79.36
75.97
70.77
62.57
51.27
37.47
21.95
5.58
-10.62
-25.63
-37.79
-45.06
-45.7
-39.18
-26.8
-11.62
2.83
13.81
20.1
22.19
21.6
19.91
18.08
16.52
15.15
14.05
13.46
13.6
14.35
15.14
15.18
13.68
10.84
7.28
4.15
2.55
3.16
6.0
10.43
15.39
19.88
23.23
25.09
25.57
24.99
23.7
22.04
20.22
18.37
16.63
15.2
14.14
13.43
12.92
12.35
11.4
9.98
8.17
6.18
4.25
2.44
0.67
-1.28
-3.57
-6.23
-9.08
-11.9
-14.45
-16.66
-18.61
-20.38
-22.09
-23.75
-25.35
-26.79
-27.91
-28.43
-28.06
-26.52
-23.72
-19.8
-15.2
-10.44
-6.02
-2.15
1.16
4.11
6.84
9.32
11.39
12.82
13.58
13.86
14.04
14.41
15.1
15.9
16.49
16.57
16.03
14.98
13.64
12.17
10.56
8.72
6.54
4.02
1.25
-1.59
-4.37
-6.95
-9.29
-11.39
-13.25
-14.91
-16.48
-18.1
-19.85
-21.68
-23.35
-24.44
-24.47
-23.13
-20.34
-16.31
-11.55
-6.57
-1.81
2.55
6.46
9.97
13.03
15.42
16.87
17.19
16.46
15.05
13.46
12.11
11.17
10.53
9.93
9.13
8.0
6.58
4.91
3.01
0.84
-1.59
-4.26
-7.04
-9.76
-12.3
-14.61
-16.77
-18.88
-21.01
-23.16
-25.22
-26.99
-28.12
-28.19
-26.87
-24.05
-19.92
-14.91
-9.53
-4.24
0.71
5.23
9.32
12.89
15.74
17.59
18.32
18.0
16.86
15.27
13.54
11.81
10.17
8.64
7.18
5.83
4.61
3.55
2.58
1.63
0.59
-0.59
-2.12
-4.2
-6.98
-10.36
-14.04
-17.66
-20.83
-23.28
-24.96
-26.49
-28.61
-31.92
-36.38
-41.28
-45.42
-47.54
-46.76
-42.9
-37.2
-31.44
-27.21
-25.16
-24.95
-25.54
-25.88
-25.15
-22.96
-19.94
-16.77
-13.91
-11.55
-10.13
-10.74
-14.95
-24.12
-33.41
-37.53
-32.53
-18.44
1.46
23.21
43.83
61.75
76.56
88.25
96.19
99.51
97.29
89.26
75.74
57.86
37.69
18.09
1.8
-9.66
-16.26
-19.35
-21.07
-23.3
-27.05
-32.45
-36.52
-37.72
-35.87
-31.91
-27.33
-23.29
-20.04
-16.87
-12.7
-6.63
1.22
9.95
18.23
24.81
28.97
30.65
30.39
29.03
27.49
26.19
25.26
24.51
23.72
22.74
21.77
21.12
20.99
21.31
21.54
21.02
19.14
15.65
10.7
4.77
-1.55
-7.87
-14.01
-20.03
-25.94
-31.53
-36.33
-39.76
-41.3
-40.69
-38.11
-34.04
-29.23
-24.4
-20.09
-16.56
-13.82
-11.71
-9.99
-8.51
-7.23
-6.26
-5.77
-5.82
-6.32
-6.96
-7.35
-7.19
-6.48
-5.51
-4.79
-4.77
-5.66
-7.38
-9.69
-12.34
-15.27
-18.59
-22.33
-26.52
-31.11
-36.04
-41.35
-47.11
-53.27
-59.38
-64.64
-68.0
-68.57
-66.05
-60.79
-53.75
-46.03
-38.59
-31.89
-25.97
-20.7
-16.0
-12.04
-9.08
-7.33
-6.76
-6.98
-7.42
-7.54
-7.02
-5.89
-4.45
-3.07
-2.08
-1.61
-1.68
-2.24
-3.35
-5.1
-7.58
-10.75
-14.49
-18.63
-23.07
-27.84
-33.08
-38.98
-45.55
-52.62
-59.72
-66.28
-71.76
-75.79
-78.15
-78.61
-76.76
-71.93
-63.28
-50.14
-32.3
-10.49
13.72
38.04
60.03
77.67
89.79
96.24
97.72
95.49
90.84
84.87
78.19
71.16
63.88
56.49
49.17
42.15
35.56
29.38
23.51
17.77
12.18
6.9
2.15
-1.88
-5.24
-8.15
-10.8
-13.17
-14.98
-15.66
-14.63
-11.52
-6.41
0.09
7.01
13.25
18.01
20.97
22.36
22.69
22.51
22.2
21.83
21.37
20.9
20.67
21.03
22.22
24.12
26.28
28.13
29.22
29.48
29.16
28.6
28.06
27.57
27.05
26.42
25.7
25.02
24.5
24.11
23.59
22.64
21.04
18.82
16.2
13.56
11.12
9.01
7.22
5.65
4.19
2.77
1.26
-0.53
-2.77
-5.75
-9.62
-14.4
-19.97
-25.98
-32.03
-37.82
-43.28
-48.54
-53.96
-59.8
-65.95
-71.72
-75.81
-76.7
-73.2
-64.93
-52.54
-37.44
-21.22
-5.18
9.8
23.21
34.44
42.7
47.18
47.67
44.86
40.41
36.45
34.72
36.23
41.04
48.8
59.12
71.88
86.9
103.51
120.06
134.07
142.96
144.99
139.99
129.51
116.19
102.87
91.67
83.57
78.53
75.85
74.57
73.58
71.64
67.24
58.99
46.09
28.97
9.3
-10.38
-27.6
-40.92
-50.29
-56.8
-61.88
-66.44
-70.48
-73.2
-73.59
-71.03
-65.59
-57.83
-48.43
-37.86
-26.38
-14.24
-1.95
9.69
19.68
27.18
31.81
33.78
33.82
32.84
31.7
30.89
30.5
30.22
29.62
28.38
26.48
24.14
21.7
19.4
17.21
14.95
12.36
9.33
5.83
1.91
-2.33
-6.78
-11.1
-14.69
-16.82
-16.86
-14.53
-10.14
-4.46
1.61
7.29
12.14
15.98
18.73
20.29
20.53
19.48
17.4
14.79
12.31
10.49
9.58
9.56
10.12
10.84
11.35
11.36
10.72
9.35
7.3
4.65
1.61
-1.58
-4.72
-7.8
-10.99
-14.57
-18.69
-23.23
-27.61
-30.98
-32.54
-31.83
-28.97
-24.64
-19.77
-15.25
-11.6
-8.97
-7.15
-5.9
-4.99
-4.41
-4.3
-4.88
-6.34
-8.82
-12.17
-15.87
-18.9
-19.7
-16.56
-8.29
5.2
22.33
40.08
54.75
63.22
63.9
57.36
45.96
33.03
21.81
14.58
12.45
15.32
22.33
32.08
42.92
53.11
61.05
65.68
66.81
65.37
63.09
62.04
63.65
68.2
74.6
80.91
85.17
86.16
83.82
79.0
72.96
66.73
60.77
55.1
49.55
44.1
38.98
34.62
31.6
30.49
31.8
35.85
42.74
52.19
63.35
74.86
84.94
91.92
94.67
92.98
87.57
80.16
72.92
67.91
66.49
69.13
75.47
84.69
95.88
107.97
120.2
131.82
141.73
148.41
150.26
146.3
136.47
121.64
102.58
80.48
56.63
31.93
6.71
-19.02
-45.17
-71.4
-97.35
-123.62
-150.37
-177.34
-204.48
-232.34
-261.42
-291.36
-320.41
-345.9
-366.15
-379.21
-383.11
-376.69
-360.04
-334.12
-300.29
-260.31
-209.81
-153.0
-100.06
-60.02
-35.16
-22.27
-16.68
-14.7
-14.3
-14.73
-16.81
-20.18
-23.23
-24.29
-22.77
-19.26
-14.87
-10.56
-6.91
-4.8
-3.82
-2.33
1.22
7.6
16.55
27.03
37.24
44.79
46.85
41.97
30.79
15.66
-0.21
-13.98
-23.67
-28.66
-29.53
-27.73
-24.38
-20.0
-14.66
-8.4
-2.33
2.61
5.82
7.22
7.18
6.5
6.17
6.91
8.88
11.57
14.28
16.27
17.07
16.73
15.73
14.68
14.1
14.14
14.49
14.82
14.83
14.49
14.03
13.87
14.26
15.24
16.6
18.07
19.51
20.99
22.57
24.22
25.57
25.99
24.81
21.73
16.99
11.41
6.09
1.98
-0.25
-0.24
2.24
7.4
15.35
25.8
37.92
50.15
60.32
66.17
65.76
58.11
43.46
23.27
-0.25
-24.59
-47.51
-67.19
-81.99
-90.3
-90.6
-81.87
-64.45
-40.63
-14.55
8.74
24.79
31.03
27.41
15.9
-0.41
-18.44
-35.72
-50.64
-62.18
-69.71
-72.91
-71.89
-67.34
-60.52
-52.89
-45.72
-39.68
-34.62
-29.76
-24.14
-17.07
-8.56
0.74
9.69
17.21
22.73
26.28
28.38
29.67
30.67
31.51
32.08
32.15
31.6
30.48
29.05
27.6
26.34
25.4
24.69
23.99
23.02
21.51
19.32
16.46
13.0
9.02
4.71
0.42
-3.3
-5.72
-6.21
-4.61
-1.32
2.72
6.46
9.04
10.14
9.92
8.71
6.81
4.33
1.31
-2.1
-5.49
-8.3
-9.97
-10.18
-8.95
-6.67
-3.97
-1.52
0.17
0.74
0.09
-1.65
-4.19
-7.21
-10.34
-13.34
-16.02
-18.29
-20.19
-21.88
-23.6
-25.52
-27.73
-30.04
-31.94
-32.78
-31.93
-29.03
-24.17
-17.81
-10.64
-3.35
3.52
9.56
14.46
17.97
19.89
20.22
19.17
17.26
15.1
13.25
11.99
11.34
11.09
10.86
10.32
9.17
7.26
4.6
1.34
-2.23
-5.83
-9.25
-12.43
-15.49
-18.63
-22.05
-25.79
-29.7
-33.49
-36.9
-39.84
-42.44
-45.05
-47.84
-50.58
-52.62
-53.0
-50.78
-45.49
-37.14
-26.16
-13.13
1.36
16.69
31.99
46.23
58.42
68.06
75.44
81.48
87.22
93.24
99.27
104.43
107.72
108.53
106.89
103.27
98.28
92.45
86.16
79.79
73.71
68.26
63.54
59.36
55.39
51.38
47.33
43.51
40.19
37.46
35.15
32.91
30.46
27.61
24.26
20.12
14.64
7.13
-2.87
-15.14
-28.55
-41.12
-50.75
-55.8
-55.72
-51.12
-43.48
-34.52
-25.71
-17.97
-11.64
-6.8
-3.39
-1.53
-1.34
-2.9
-5.96
-9.93
-13.93
-17.13
-19.02
-19.62
-19.33
-18.75
-18.34
-18.2
-18.11
-17.78
-17.02
-15.93
-14.77
-13.91
-13.56
-13.78
-14.48
-15.5
-16.74
-18.12
-19.63
-21.23
-22.89
-24.47
-25.82
-26.83
-27.52
-28.1
-28.89
-30.13
-31.82
-33.63
-34.92
-34.95
-33.2
-29.58
-24.46
-18.49
-12.42
-6.87
-2.18
1.49
4.09
5.64
6.21
5.93
5.13
4.17
3.44
3.19
3.38
3.8
4.16
4.26
4.04
3.65
3.28
3.09
3.09
3.11
2.88
2.2
1.02
-0.57
-2.38
-4.23
-5.98
-7.55
-8.96
-10.21
-11.38
-12.55
-13.79
-15.21
-16.97
-19.17
-21.85
-24.95
-28.22
-31.22
-33.34
-33.96
-32.66
-29.43
-24.62
-18.93
-13.06
-7.51
-2.55
1.84
5.71
9.1
11.87
13.89
15.03
15.4
15.25
14.91
14.66
14.62
14.71
14.74
14.52
13.89
12.93
11.79
10.55
9.25
7.79
6.04
3.94
1.55
-1.0
-3.54
-6.01
-8.49
-11.12
-13.98
-16.98
-19.86
-22.27
-23.94
-24.82
-25.16
-25.47
-26.34
-28.23
-31.17
-34.69
-37.84
-39.44
-38.49
-34.51
-27.71
-18.88
-9.2
0.17
8.35
14.83
19.45
22.2
23.23
22.72
21.0
18.47
15.65
13.05
11.14
10.1
9.82
9.97
10.14
10.03
9.51
8.66
7.67
6.75
5.99
5.37
4.8
4.14
3.26
2.09
0.68
-0.85
-2.32
-3.55
-4.47
-5.1
-5.63
-6.29
-7.35
-9.0
-11.36
-14.35
-17.68
-20.81
-23.04
-23.79
-22.62
-19.46
-14.62
-8.65
-2.28
3.75
8.83
12.61
14.99
16.26
16.81
17.13
17.58
18.32
19.31
20.4
21.42
22.18
22.63
22.89
23.29
24.28
26.22
29.16
32.69
36.02
38.24
38.79
37.74
35.87
34.42
34.49
36.67
40.66
45.39
49.35
51.13
49.81
45.24
37.99
29.26
20.56
13.48
9.38
9.08
12.56
18.86
26.19
32.38
35.51
34.43
29.0
19.98
8.64
-3.69
-15.76
-26.54
-35.18
-41.09
-44.04
-44.11
-41.65
-36.96
-30.14
-21.09
-9.73
3.65
18.19
32.45
44.73
53.5
57.74
57.06
51.72
42.44
30.26
16.34
1.85
-12.17
-24.89
-35.72
-44.36
-50.89
-55.65
-59.1
-61.66
-63.45
-64.26
-63.65
-61.21
-56.87
-51.03
-44.47
-38.09
-32.62
-28.38
-25.31
-23.08
-21.32
-19.72
-18.13
-16.56
-15.01
-13.49
-11.92
-10.19
-8.27
-6.24
-4.33
-2.79
-1.83
-1.49
-1.66
-2.11
-2.59
-3.03
-3.46
-3.98
-4.72
-5.68
-6.77
-7.82
-8.65
-9.15
-9.31
-9.24
-9.16
-9.31
-9.91
-11.03
-12.57
-14.2
-15.41
-15.68
-14.66
-12.26
-8.74
-4.53
-0.15
3.94
7.5
10.45
12.71
14.24
14.98
15.0
14.52
13.88
13.43
13.5
14.22
15.45
16.85
18.04
18.76
18.99
18.86
18.58
18.57
19.17
20.47
22.21
23.88
25.07
25.53
25.19
24.16
23.07
22.52
22.85
23.85
24.92
25.49
25.27
24.3
23.04
22.84
25.3
31.64
42.13
55.97
71.62
87.03
100.0
104.84
97.29
76.51
46.31
13.25
-16.26
-37.41
-47.62
-46.8
-35.77
-16.09
9.34
36.49
61.08
78.41
85.47
81.54
68.01
47.66
24.03
0.26
-21.46
-40.19
-56.03
-69.44
-80.93
-90.92
-99.65
-106.99
-112.67
-116.37
-117.81
-116.82
-113.17
-106.69
-97.48
-85.9
-72.51
-57.93
-42.85
-27.94
-13.81
-0.93
10.4
19.93
27.46
32.85
36.02
37.04
36.06
33.31
29.18
24.05
18.31
12.21
5.94
-0.44
-6.89
-13.32
-19.5
-25.03
-29.36
-32.0
-32.68
-31.44
-28.66
-24.96
-20.95
-17.03
-13.35
-9.83
-6.36
-2.99
0.02
2.21
3.09
2.41
0.31
-2.7
-5.87
-8.39
-9.67
-9.45
-7.89
-5.52
-3.04
-1.13
-0.12
0.11
0.17
0.78
2.35
4.75
7.26
8.89
8.89
7.19
4.53
1.94
0.2
-0.52
-0.77
-1.42
-3.14
-6.07
-9.73
-13.09
-15.31
-15.96
-15.07
-13.05
-10.6
-8.64
-8.24
-9.75
-13.08
-17.8
-22.9
-27.04
-28.85
-27.07
-20.57
-8.66
8.18
29.97
55.33
81.76
106.27
126.28
140.21
147.67
149.08
142.45
127.89
106.51
80.34
52.05
24.41
-0.17
-20.19
-35.13
-45.34
-51.08
-53.05
-52.23
-49.86
-47.26
-45.44
-45.07
-46.34
-49.08
-52.48
-55.76
-58.2
-59.1
-57.73
-53.21
-45.03
-33.41
-19.39
-4.54
9.11
19.4
24.62
23.16
15.22
3.31
-8.81
-18.06
-23.03
-23.92
-21.85
-17.92
-12.86
-6.9
-0.55
5.2
9.06
10.17
8.58
5.42
2.35
0.81
1.74
4.86
8.99
12.71
14.77
14.24
10.61
4.11
-3.63
-9.28
-8.91
0.25
18.14
41.01
62.54
76.45
78.98
69.36
51.67
30.93
10.49
-8.31
-25.14
-38.98
-47.45
-47.98
-39.73
-24.77
-8.18
3.96
7.96
2.84
-9.41
-25.04
-40.27
-52.23
-59.25
-60.28
-56.23
-48.45
-38.75
-29.06
-20.89
-14.84
-10.05
-4.55
3.52
14.74
28.06
41.03
50.94
56.52
57.48
54.67
49.28
41.88
32.52
21.44
9.7
-0.72
-7.64
-9.77
-7.37
-2.1
3.79
8.3
10.47
10.17
7.73
3.42
-2.58
-9.84
-17.54
-24.48
-29.56
-31.98
-31.36
-27.71
-21.43
-13.23
-3.81
5.87
14.73
21.6
25.65
26.92
26.38
25.39
25.43
27.96
33.06
40.27
48.32
55.69
61.24
64.44
65.05
63.43
60.89
58.94
58.83
60.3
61.38
59.19
50.8
34.06
8.99
-21.52
-50.83
-69.33
-70.34
-55.1
-31.11
-6.68
12.54
23.22
28.8
33.16
39.18
47.97
58.96
70.81
83.83
96.79
108.11
116.75
121.68
122.14
117.3
106.68
90.88
71.86
52.04
34.0
19.77
9.67
2.65
-3.13
-9.4
-16.78
-24.75
-32.5
-39.19
-44.14
-47.37
-49.22
-50.25
-51.13
-52.48
-54.8
-58.74
-64.66
-72.36
-81.36
-90.93
-100.45
-109.62
-118.55
-127.45
-136.61
-145.93
-154.96
-163.18
-170.06
-175.34
-179.07
-181.5
-182.94
-183.7
-183.86
-183.43
-182.34
-180.52
-177.97
-174.68
-170.55
-165.19
-157.99
-148.14
-134.98
-118.27
-98.48
-76.8
-54.95
-34.85
-18.16
-6.12
0.69
2.39
-0.16
-5.43
-11.43
-16.04
-17.42
-14.48
-7.14
3.63
16.13
28.38
38.77
46.41
51.21
53.72
54.84
55.67
57.45
61.51
68.97
80.25
94.59
109.89
123.32
132.34
135.79
134.4
130.38
126.25
123.7
122.95
122.96
122.23
119.76
115.55
110.41
105.57
102.01
100.1
99.45
99.27
98.67
97.03
94.19
90.41
86.23
82.23
78.79
76.03
73.89
72.21
70.76
69.36
67.97
66.96
67.4
71.08
79.95
95.12
115.83
138.7
158.45
169.58
168.5
154.93
131.86
103.72
74.51
46.36
19.39
-7.2
-33.84
-60.04
-84.74
-106.99
-126.48
-142.3
-152.39
-154.03
-145.27
-126.58
-101.71
-77.06
-59.51
-54.44
-62.91
-81.59
-104.76
-126.94
-144.5
-156.0
-161.49
-161.65
-157.85
-150.54
-139.47
-124.58
-106.68
-87.25
-67.62
-48.24
-24.22
4.69
34.32
59.45
77.31
87.76
91.68
90.09
84.08
75.03
63.89
52.52
43.57
39.35
41.15
48.77
60.34
72.43
80.98
81.62
72.27
54.46
32.36
11.76
-1.51
-3.96
3.61
16.98
30.63
40.97
47.62
51.66
55.21
58.73
60.86
59.29
51.63
36.46
14.57
-10.56
-35.05
-55.17
-69.14
-78.13
-85.9
-97.95
-119.59
-153.55
-192.39
-227.84
-250.57
-252.83
-230.7
-185.18
-122.82
-54.02
10.08
60.51
90.88
99.17
87.36
60.18
28.0
2.75
-8.9
-7.72
1.97
15.47
30.06
44.15
56.18
64.64
67.94
65.52
58.94
51.57
46.36
44.69
45.59
46.03
42.31
31.02
10.42
-17.98
-49.2
-76.17
-92.06
-92.95
-79.55
-57.21
-34.24
-18.7
-15.09
-22.91
-37.97
-53.94
-65.33
-68.99
-64.74
-54.64
-41.45
-27.27
-13.04
0.97
14.63
27.53
39.31
50.09
60.71
72.38
86.04
101.61
117.54
131.23
139.57
140.24
132.43
117.35
97.91
77.73
60.04
46.7
37.87
32.17
27.51
21.83
13.83
3.23
-9.49
-23.39
-37.45
-50.7
-62.41
-72.3
-80.84
-89.15
-98.74
-110.87
-126.08
-144.1
-163.74
-183.21
-200.27
-212.75
-218.91
-217.7
-209.09
-194.29
-175.58
-155.62
-136.63
-119.59
-104.15
-89.22
-73.56
-56.07
-36.44
-15.22
6.54
27.68
47.26
64.51
78.8
89.75
98.31
105.53
112.06
117.88
122.57
125.51
125.9
122.94
116.21
107.91
100.29
94.47
90.16
86.67
83.75
81.65
80.92
82.19
89.07
103.57
124.71
148.84
172.05
192.1
208.48
221.72
232.63
246.0
264.81
288.51
313.66
336.65
355.79
371.22
383.91
368.35
312.46
223.22
122.13
28.51
-49.58
-112.43
-162.99
-203.8
-236.28
-257.1
-264.9
-262.05
-253.28
-243.32
-234.68
-227.87
-222.42
-217.71
-210.16
-197.55
-180.4
-160.37
-140.39
-122.26
-106.65
-93.68
-83.37
-73.76
-63.62
-53.13
-43.66
-36.72
-32.74
-31.18
-31.1
-31.57
-31.05
-28.66
-24.66
-20.18
-16.54
-14.47
-14.01
-14.86
-16.65
-18.77
-20.79
-22.54
-24.09
-25.61
-27.29
-29.34
-31.92
-34.95
-38.0
-40.26
-40.84
-39.14
-35.09
-29.15
-22.13
-14.78
-7.64
-0.98
5.12
10.51
14.88
17.95
19.59
19.98
19.62
19.11
18.93
19.2
19.68
19.85
19.25
17.67
15.26
12.42
9.56
6.9
4.4
1.83
-1.07
-4.37
-7.94
-11.57
-15.08
-18.44
-21.71
-24.81
-27.41
-28.89
-28.58
-26.11
-21.58
-15.47
-8.47
-1.18
6.05
13.01
19.43
24.86
28.75
30.65
30.59
29.03
26.79
24.71
23.31
22.68
22.52
22.36
21.75
20.42
18.32
15.48
12.08
8.25
4.13
-0.11
-4.31
-8.29
-11.84
-14.84
-17.29
-19.4
-21.43
-23.5
-25.41
-26.57
-26.24
-23.89
-19.42
-13.31
-6.35
0.65
7.13
12.9
17.89
22.0
24.93
26.3
25.9
23.97
21.13
18.08
15.42
13.29
11.41
9.36
6.75
3.51
-0.1
-3.61
-6.65
-9.24
-11.62
-14.19
-17.07
-20.22
-23.47
-26.63
-29.47
-31.81
-33.53
-34.37
-33.98
-31.92
-27.89
-21.98
-14.54
-5.81
3.94
14.39
25.1
35.54
45.17
53.32
59.3
62.61
64.08
64.7
65.07
65.35
65.59
66.1
67.15
68.65
70.11
72.68
76.94
82.28
87.2
90.42
91.83
92.17
92.44
93.43
98.73
110.41
127.58
146.64
163.78
176.97
186.21
192.66
197.77
206.8
223.13
246.42
272.94
298.29
319.57
335.34
344.84
322.21
255.51
153.44
41.54
-55.91
-127.7
-173.94
-200.01
-212.3
-216.42
-212.75
-201.9
-186.65
-171.14
-158.1
-147.11
-135.53
-121.11
-103.53
-81.61
-56.46
-31.62
-11.79
-0.49
1.07
-5.96
-19.37
-36.56
-52.89
-64.38
-68.89
-66.53
-58.74
-47.36
-34.18
-21.11
-9.82
-0.7
6.06
9.99
10.38
6.74
-0.78
-11.46
-24.62
-39.89
-57.16
-77.2
-101.34
-130.92
-166.07
-204.89
-243.11
-274.91
-294.52
-297.78
-283.63
-254.28
-214.39
-169.46
-124.14
-81.16
-41.19
-3.79
31.71
65.37
96.66
124.96
149.88
171.11
187.83
198.17
199.44
189.48
168.06
137.95
104.36
73.08
48.3
31.11
19.37
8.98
-4.37
-24.22
-52.75
-90.8
-137.64
-190.25
-242.59
-286.01
-311.04
-310.36
-281.74
-229.39
-163.01
-94.64
-34.78
10.6
40.9
59.48
71.06
79.34
85.96
90.9
93.87
95.29
96.55
99.46
105.57
115.79
130.58
150.14
174.17
201.09
227.58
248.83
259.75
256.89
239.68
210.52
173.61
133.21
92.6
54.04
19.48
-8.87
-28.88
-39.57
-42.01
-39.29
-35.32
-33.35
-34.92
-40.11
-48.36
-59.34
-73.08
-89.57
-108.28
-128.08
-147.91
-167.24
-186.24
-205.08
-223.03
-237.9
-246.29
-244.52
-229.75
-200.86
-159.02
-107.73
-52.42
0.34
44.28
74.98
90.9
93.78
87.85
78.28
69.6
64.55
63.7
65.8
68.73
70.12
68.11
61.75
51.26
38.19
25.27
15.96
13.51
19.78
34.2
53.61
73.07
87.38
92.92
88.56
75.8
57.83
38.29
20.16
5.19
-6.17
-14.52
-20.9
-26.33
-31.38
-36.14
-40.29
-43.09
-43.33
-39.26
-29.16
-11.85
11.98
38.94
63.06
77.47
76.94
59.97
29.6
-7.98
-45.54
-77.53
-101.47
-118.07
-130.06
-140.54
-151.86
-165.05
-180.13
-195.75
-209.44
-217.78
-216.9
-203.51
-176.11
-136.32
-89.21
-43.01
-5.68
17.43
24.78
18.16
1.03
-23.42
-53.76
-89.68
-131.86
-177.25
-218.5
-246.12
-252.42
-234.56
-195.38
-142.57
-85.58
-34.99
3.56
29.64
45.68
53.38
52.35
40.66
16.3
-20.21
-67.1
-116.11
-154.62
-170.79
-159.4
-123.85
-73.91
-21.87
41.24
111.31
176.16
225.35
257.8
278.57
292.5
305.32
319.66
335.89
349.05
354.74
348.21
327.16
292.31
248.05
201.52
159.18
124.62
95.17
67.45
39.86
13.27
-10.71
-31.28
-49.22
-67.04
-87.39
-113.24
-144.56
-178.7
-211.84
-241.03
-264.36
-280.12
-286.62
-281.93
-265.58
-238.0
-200.9
-157.03
-109.82
-62.46
-17.39
23.67
59.61
89.54
113.23
131.25
144.58
154.25
160.71
163.79
162.64
156.07
142.83
122.03
93.48
57.97
17.73
-23.88
-62.91
-95.95
-121.04
-138.18
-148.88
-155.32
-159.37
-162.04
-163.64
-164.2
-163.68
-161.84
-157.66
-149.1
-133.19
-107.0
-69.04
-20.58
33.78
86.74
130.1
157.26
165.01
154.42
129.97
97.89
64.06
32.64
5.67
-16.48
-34.36
-48.85
-60.83
-71.25
-81.0
-90.75
-100.32
-108.49
-113.01
-111.26
-101.03
-81.38
-52.98
-17.89
20.89
60.15
97.17
130.05
158.12
181.61
201.46
219.0
235.79
252.94
270.51
287.05
299.73
305.37
301.48
287.33
264.46
236.6
208.28
183.26
163.41
148.43
136.93
126.96
116.89
106.05
95.37
86.15
78.8
72.36
64.31
52.85
36.66
15.29
-10.11
-35.4
-55.89
-68.45
-72.61
-71.05
-65.54
-57.88
-49.84
-42.27
-32.7
-18.8
-0.71
18.41
32.51
39.65
39.72
33.6
23.41
15.34
15.4
26.85
49.2
77.61
110.64
146.66
182.88
194.01
163.95
96.11
12.65
-47.45
-82.83
-99.43
-103.55
-105.37
-110.09
-116.73
-122.09
-123.24
-119.18
-112.66
-103.43
-92.08
-80.82
-71.36
-61.93
-49.86
-34.11
-16.71
-3.4
3.12
1.64
-7.64
-22.29
-37.22
-47.62
-51.3
-49.5
-46.66
-45.45
-47.38
-52.71
-60.25
-67.59
-72.73
-75.17
-75.86
-76.87
-78.71
-80.87
-82.25
-81.34
-76.98
-69.04
-58.59
-47.4
-37.28
-28.97
-22.3
-16.65
-11.08
-5.11
0.89
6.0
9.44
11.05
11.44
11.7
12.94
16.17
21.42
27.61
33.09
36.63
37.9
37.43
36.1
34.75
34.62
36.67
41.17
47.62
54.74
60.27
61.29
54.82
36.35
6.58
-27.48
-55.96
-72.22
-75.58
-69.86
-60.02
-49.92
-41.39
-34.19
-27.98
-23.33
-21.15
-21.18
-21.39
-18.24
-8.85
7.27
27.8
47.75
61.36
64.48
57.39
42.2
23.33
5.34
-8.18
-15.02
-14.79
-8.52
1.73
13.46
23.95
30.88
32.15
27.17
17.39
5.47
-5.71
-14.08
-18.96
-21.17
-22.11
-23.81
-27.18
-30.41
-31.84
-30.46
-26.65
-22.0
-18.99
-19.97
-27.13
-40.5
-57.66
-74.85
-88.11
-94.31
-91.61
-79.71
-55.36
-21.52
13.88
42.71
60.95
68.92
68.99
63.83
55.79
46.86
37.86
29.92
24.59
22.96
24.96
28.82
31.51
29.6
20.74
4.11
-17.99
-40.76
-59.63
-71.32
-75.11
-72.51
-66.14
-58.06
-49.5
-40.27
-29.59
-17.4
-4.91
5.55
11.95
13.63
12.08
10.14
11.02
17.01
28.61
44.5
62.42
80.38
95.88
107.47
114.37
116.12
112.36
102.82
87.62
67.57
44.29
19.92
-3.08
-22.72
-38.03
-49.16
-57.04
-62.92
-67.85
-72.43
-76.8
-80.67
-83.65
-85.38
-85.59
-83.93
-80.09
-73.83
-65.21
-54.73
-43.05
-30.93
-19.06
-7.91
2.16
10.86
17.95
23.34
27.19
30.1
32.86
36.15
40.21
44.57
48.19
49.82
48.62
44.49
38.22
31.17
24.59
19.25
15.1
11.33
6.64
-0.17
-9.85
-22.35
-36.73
-51.28
-63.82
-72.14
-74.64
-70.79
-61.27
-47.74
-32.06
-15.61
1.12
18.41
36.82
56.49
76.76
96.24
113.25
126.36
134.65
137.74
135.58
128.26
116.0
99.45
79.74
58.48
37.5
18.46
2.45
-10.1
-19.38
-25.94
-30.36
-33.16
-34.85
-35.91
-36.82
-38.0
-39.64
-41.68
-43.9
-46.02
-47.97
-49.78
-51.45
-52.84
-53.62
-53.42
-51.95
-49.27
-45.63
-41.4
-36.7
-31.34
-24.96
-17.19
-7.97
2.34
12.88
22.53
30.15
34.84
36.25
34.5
30.15
24.04
17.11
10.3
4.43
0.12
-2.31
-2.91
-2.18
-0.81
0.42
0.9
0.38
-1.14
-3.49
-6.48
-9.82
-13.22
-16.09
-17.76
-17.62
-15.33
-11.06
-5.56
-0.01
4.35
6.62
6.55
4.51
1.27
-2.31
-5.47
-7.67
-8.58
-8.06
-6.28
-3.93
-2.24
-2.7
-6.33
-12.95
-20.88
-27.37
-29.61
-25.83
-15.99
-1.61
14.93
31.27
45.46
55.95
61.35
60.38
52.35
37.75
18.75
-1.15
-18.08
-29.08
-33.06
-30.87
-24.74
-17.17
-10.18
-4.84
-1.58
-0.58
-2.03
-6.1
-12.44
-20.05
-27.24
-32.1
-33.16
-29.97
-23.3
-14.86
-6.78
-0.84
1.87
1.17
-2.28
-7.28
-12.38
-16.13
-17.35
-15.56
-11.16
-5.65
-1.37
-0.77
-5.47
-15.32
-28.23
-40.63
-48.75
-49.81
-42.97
-29.29
-11.18
8.49
27.18
42.9
54.32
60.64
61.69
57.88
50.32
40.52
29.98
19.98
11.18
3.79
-2.38
-7.57
-12.0
-15.8
-18.88
-21.23
-22.78
-23.67
-24.07
-24.26
-24.5
-25.07
-26.15
-27.9
-30.4
-33.5
-36.89
-40.02
-42.32
-43.29
-42.7
-40.58
-37.17
-32.8
-27.69
-22.02
-15.94
-9.63
-3.41
2.3
7.01
10.31
12.02
12.23
11.32
9.8
8.16
6.72
5.6
4.73
3.95
3.11
2.18
1.15
0.13
-0.78
-1.55
-2.19
-2.85
-3.76
-5.17
-7.25
-9.99
-13.2
-16.44
-19.13
-20.59
-20.26
-17.84
-13.39
-7.34
-0.42
6.57
12.93
18.18
22.11
24.68
25.91
25.92
24.91
23.23
21.38
19.84
18.93
18.7
18.9
19.07
18.79
17.73
15.79
13.06
9.8
6.35
3.07
0.2
-2.15
-4.05
-5.72
-7.46
-9.49
-11.91
-14.62
-17.27
-19.43
-20.62
-20.41
-18.58
-15.11
-10.23
-4.43
1.63
7.36
12.27
16.17
19.07
21.15
22.65
23.7
24.29
24.36
23.89
22.93
21.61
20.13
18.62
17.19
15.91
14.77
13.77
12.79
11.65
10.23
8.49
6.45
4.2
1.82
-0.77
-3.65
-6.92
-10.52
-14.19
-17.58
-20.31
-22.13
-22.89
-22.47
-20.78
-17.8
-13.64
-8.56
-3.01
2.57
7.82
12.49
16.42
19.45
21.42
22.21
21.87
20.64
18.98
17.37
16.22
15.64
15.55
15.69
15.72
15.5
15.04
14.53
14.24
14.35
14.87
15.6
16.15
16.14
15.34
13.76
11.58
9.08
6.45
3.81
1.09
-1.84
-5.14
-8.86
-12.91
-16.96
-20.49
-22.95
-23.84
-22.93
-20.28
-16.22
-11.23
-5.81
-0.42
4.61
9.02
12.63
15.35
17.11
17.88
17.71
16.67
14.95
12.88
10.91
9.53
9.05
9.54
10.75
12.23
13.56
14.44
14.79
14.69
14.19
13.28
11.87
9.81
7.08
3.82
0.2
-3.71
-8.01
-12.9
-18.46
-24.46
-30.24
-34.91
-37.53
-37.58
-35.05
-30.49
-24.67
-18.37
-12.08
-6.06
-0.4
4.83
9.45
13.22
16.01
17.91
19.32
20.67
22.33
24.36
26.52
28.43
29.77
30.46
30.72
30.86
31.11
31.44
31.61
31.38
30.59
29.26
27.52
25.73
24.11
22.66
21.25
19.69
17.99
16.32
14.78
13.23
11.66
9.75
6.91
2.67
-2.91
-8.97
-14.05
-16.63
-15.7
-10.36
-0.83
11.53
24.54
36.0
44.43
49.37
51.23
51.07
51.11
53.2
58.1
65.23
72.88
78.9
81.41
79.3
66.94
42.79
10.1
-23.96
-52.58
-72.88
-85.98
-94.57
-100.87
-105.83
-108.37
-107.36
-102.18
-92.84
-79.7
-63.43
-44.92
-25.66
-7.55
9.46
25.41
40.62
55.16
68.21
77.39
79.41
71.21
51.44
22.08
-12.23
-45.56
-72.71
-88.74
-93.03
-88.8
-80.58
-71.71
-62.96
-53.41
-41.9
-28.56
-15.13
-4.34
1.48
1.4
-4.34
-14.28
-26.07
-36.46
-41.59
-37.92
-23.96
-1.34
25.41
49.83
65.37
69.31
63.45
52.44
40.88
30.95
21.89
11.83
-0.92
-15.92
-30.96
-43.44
-51.7
-55.74
-55.65
-53.25
-49.74
-45.26
-39.32
-31.7
-23.18
-15.29
-9.27
-4.96
-0.72
5.78
16.31
30.6
46.24
59.6
67.61
68.86
63.96
54.54
42.26
28.33
13.45
-1.57
-15.56
-26.98
-34.64
-38.27
-38.89
-38.45
-38.9
-41.59
-46.78
-53.7
-60.89
-67.01
-71.51
-73.62
-74.43
-75.82
-79.68
-87.11
-97.75
-109.69
-119.81
-124.64
-121.2
-108.04
-85.42
-55.34
-21.14
13.31
44.57
70.28
89.5
102.62
110.62
114.74
116.09
115.4
113.25
110.31
107.42
105.5
105.19
106.47
108.77
111.15
112.74
113.01
111.97
109.87
106.96
103.12
97.69
89.78
78.74
64.59
48.33
31.68
16.65
4.76
-3.5
-8.87
-12.93
-17.29
-22.97
-29.91
-37.19
-43.59
-48.23
-50.99
-52.56
-54.04
-56.38
-59.97
-64.39
-68.58
-71.29
-71.58
-69.29
-65.17
-60.54
-56.81
-54.94
-55.15
-56.83
-58.82
-59.74
-58.59
-54.72
-47.93
-38.29
-26.32
-13.02
0.2
11.72
20.21
24.74
25.23
22.49
18.03
13.33
9.42
6.69
5.2
5.08
6.52
9.8
15.02
21.93
29.66
37.14
42.32
44.1
43.42
42.47
42.7
43.78
44.35
43.25
40.41
36.56
32.45
27.83
21.05
9.85
-6.94
-28.21
-51.27
-72.87
-90.22
-101.79
-107.53
-108.39
-105.33
-98.63
-87.64
-71.69
-50.86
-26.49
-0.99
22.91
42.88
57.77
66.66
69.87
68.83
65.57
62.21
60.35
60.77
63.22
66.62
69.48
70.5
69.0
64.98
59.04
51.99
44.51
36.99
29.58
22.39
15.7
9.91
5.25
1.78
-0.64
-2.11
-2.64
-2.23
-1.12
0.1
0.48
-1.05
-5.14
-11.66
-19.7
-27.84
-34.78
-39.76
-42.73
-44.16
-44.8
-45.22
-45.66
-45.99
-46.07
-45.87
-45.61
-45.58
-45.88
-46.35
-46.62
-46.27
-45.06
-42.98
-40.18
-36.7
-32.47
-27.25
-20.82
-13.08
-4.13
5.8
16.33
26.84
36.48
44.24
49.25
51.03
49.81
46.36
41.71
36.73
31.9
27.21
22.39
17.18
11.54
5.67
-0.04
-5.19
-9.46
-12.73
-15.07
-16.67
-17.78
-18.56
-19.11
-19.47
-19.63
-19.59
-19.38
-19.06
-18.73
-18.66
-19.2
-20.68
-23.26
-26.74
-30.52
-33.78
-35.7
-35.83
-34.21
-31.34
-27.82
-23.97
-19.68
-14.43
-7.64
0.95
11.01
21.55
31.14
38.24
41.71
41.17
37.24
31.54
26.41
24.42
27.63
37.01
51.9
70.05
88.28
103.29
112.68
115.48
112.22
104.27
93.24
80.32
66.15
51.16
35.78
20.72
6.74
-5.58
-16.07
-24.81
-31.96
-37.5
-41.17
-42.87
-42.79
-41.7
-40.82
-41.51
-44.8
-51.03
-59.71
-69.63
-79.35
-87.27
-91.95
-92.33
-87.75
-78.01
-63.48
-45.17
-24.69
-4.61
12.34
23.79
28.29
25.86
17.98
7.21
-3.63
-12.12
-17.54
-20.31
-21.78
-23.63
-27.19
-32.99
-40.68
-49.14
-56.71
-62.31
-64.96
-64.12
-60.38
-55.19
-50.92
-50.26
-55.4
-62.18
-66.1
-62.79
-50.03
-29.46
-4.8
19.66
40.31
54.88
63.0
65.76
66.61
70.48
80.94
99.55
124.35
150.49
171.18
180.2
173.67
151.82
118.36
76.99
31.72
-14.06
-57.39
-95.7
-126.71
-149.52
-165.19
-166.61
-153.27
-128.71
-99.11
-70.29
-45.53
-25.21
-8.13
7.15
21.27
32.44
38.93
39.83
35.62
27.92
19.03
11.44
7.17
7.22
9.9
12.54
12.49
7.96
-1.63
-15.26
-30.86
-45.84
-57.66
-65.12
-67.94
-66.88
-63.86
-61.98
-64.56
-74.18
-91.7
-115.63
-142.86
-169.47
-191.89
-204.82
-204.62
-190.17
-163.35
-128.58
-91.33
-56.7
-28.02
-6.26
9.87
23.95
39.39
57.49
77.15
96.28
113.28
127.84
140.98
154.83
173.92
202.1
239.82
283.23
325.47
358.72
376.0
373.16
350.4
315.16
278.03
248.11
230.64
227.32
237.49
258.79
287.55
298.06
272.59
211.25
130.49
49.33
-19.78
-71.27
-104.72
-124.07
-135.39
-146.17
-162.22
-187.5
-223.03
-265.61
-308.74
-345.77
-372.77
-382.61
-370.96
-337.05
-285.29
-224.72
-165.98
-117.72
-83.8
-62.14
-45.69
-25.46
4.62
43.51
82.97
111.86
121.8
111.15
85.64
55.79
32.33
22.1
25.55
37.79
51.96
62.65
67.61
67.45
64.02
58.34
50.38
39.39
25.26
9.27
-6.28
-18.82
-26.67
-29.64
-29.34
-28.19
-28.33
-30.4
-33.71
-36.95
-38.92
-38.99
-37.2
-34.14
-30.51
-26.56
-21.4
-13.75
-2.83
11.01
26.32
40.84
51.94
57.41
52.99
38.04
16.95
-2.67
-14.47
-16.3
-9.8
1.39
13.36
24.13
33.15
40.34
45.54
48.44
48.95
47.57
45.24
43.13
40.57
37.71
34.32
29.5
21.75
9.52
-8.17
-31.32
-58.66
-87.74
-114.73
-135.58
-146.75
-145.81
-131.52
-103.8
-64.09
-15.7
36.0
84.17
121.63
142.74
144.97
129.65
101.42
66.67
32.1
3.77
-13.21
-15.4
-2.02
24.08
56.53
86.73
106.56
110.87
98.63
72.37
36.16
-6.0
-50.73
-94.46
-132.64
-159.92
-171.73
-166.55
-147.29
-120.58
-94.48
-75.19
-64.95
-62.02
-62.31
-61.87
-58.83
-53.7
-48.24
-44.05
-41.4
-39.32
-36.37
-31.75
-25.66
-19.05
-12.81
-7.19
-1.62
4.89
13.05
22.95
33.92
44.91
54.88
63.36
70.49
76.85
83.2
89.89
96.51
101.98
104.78
103.51
97.49
87.12
73.73
59.42
46.32
36.09
29.79
27.67
29.43
34.35
41.4
49.38
57.06
63.38
67.45
68.8
67.32
63.27
57.11
49.38
40.65
31.43
22.18
13.19
4.6
-3.73
-12.08
-20.75
-29.86
-39.25
-48.46
-57.03
-64.77
-71.85
-78.84
-86.28
-94.3
-102.56
-110.37
-117.18
-122.93
-128.07
-133.28
-138.85
-144.45
-149.08
-151.58
-151.19
-147.91
-142.4
-135.55
-128.01
-120.11
-112.03
-103.93
-96.32
-89.7
-84.22
-79.15
-73.06
-64.34
-52.05
-36.37
-18.34
0.84
20.72
41.73
64.66
89.57
115.1
138.7
157.5
169.56
174.2
171.72
162.82
148.19
128.56
105.07
79.63
54.65
32.86
16.17
5.13
-0.91
-3.35
-3.9
-4.24
-5.86
-9.68
-15.03
-20.69
-25.45
-28.77
-30.94
-32.91
-35.68
-39.64
-44.13
-46.34
-43.41
-33.69
-17.12
5.15
31.45
59.9
88.46
114.8
137.99
156.95
170.64
178.47
180.98
179.84
177.05
174.16
162.65
138.09
101.84
60.58
21.91
-9.03
-29.81
-40.4
-42.76
-40.58
-36.84
-34.36
-35.17
-40.0
-48.25
-58.4
-69.63
-81.58
-93.88
-104.51
-111.14
-111.93
-106.09
-94.19
-77.83
-59.39
-41.46
-26.33
-14.91
-7.49
-3.96
-3.92
-6.53
-10.51
-14.3
-16.62
-17.01
-15.48
-12.62
-9.2
-5.77
-2.51
0.62
3.49
5.71
6.79
6.47
5.0
2.99
1.28
0.63
1.42
3.5
6.3
9.12
11.39
12.93
13.8
14.33
14.92
15.76
16.68
17.28
17.07
15.78
13.51
10.54
7.44
4.68
2.35
0.0
-3.0
-7.25
-12.93
-19.82
-27.72
-36.1
-44.02
-50.19
-53.49
-53.39
-50.79
-47.84
-45.58
-45.37
-47.29
-49.49
-49.34
-45.44
-38.45
-30.51
-23.44
-17.41
-11.4
-3.97
5.64
16.99
29.05
42.07
56.77
74.07
93.89
114.2
131.43
141.7
142.3
132.44
113.51
88.1
59.13
28.88
-1.27
-30.58
-58.53
-83.3
-103.05
-116.43
-123.08
-123.71
-119.84
-113.37
-105.92
-98.41
-90.95
-83.3
-75.13
-66.34
-56.94
-46.95
-36.29
-24.72
-12.02
1.74
15.93
29.61
41.97
52.67
61.89
70.17
77.78
84.64
90.29
94.03
95.44
94.57
91.97
88.33
84.29
80.13
75.93
71.67
67.4
63.27
59.46
55.95
52.4
48.31
43.13
36.55
28.64
19.84
10.93
2.76
-4.02
-9.1
-12.49
-14.51
-15.62
-16.16
-16.3
-15.96
-15.0
-13.39
-11.33
-9.23
-7.63
-7.05
-7.71
-9.38
-11.37
-12.9
-13.45
-12.93
-11.62
-10.13
-9.21
-9.36
-10.6
-12.42
-14.03
-14.91
-14.93
-14.2
-13.19
-12.7
-13.35
-15.29
-17.98
-20.38
-21.73
-21.52
-19.48
-15.81
-11.33
-7.13
-4.13
-2.87
-3.16
-4.71
-6.79
-8.34
-6.76
-0.8
8.03
15.85
17.43
12.09
0.77
-15.09
-32.52
-48.53
-60.48
-66.13
-64.08
-54.17
-37.7
-17.99
0.89
15.34
23.12
23.65
18.22
9.75
2.1
-0.78
4.04
18.12
41.41
71.5
103.42
130.37
145.76
145.65
130.62
105.72
78.76
57.16
44.94
41.43
42.43
42.87
39.34
31.27
20.13
7.95
-3.96
-15.5
-27.12
-38.9
-50.06
-59.14
-64.61
-65.71
-62.87
-57.36
-50.63
-43.62
-36.42
-28.46
-19.03
-8.04
3.88
15.36
24.71
30.41
31.55
28.03
20.76
11.6
2.96
-2.68
-3.83
-0.31
6.6
14.96
23.11
30.46
37.47
44.99
53.36
61.7
68.1
70.3
66.44
55.67
38.27
15.33
-11.53
-40.3
-68.76
-94.57
-115.52
-129.97
-137.23
-137.59
-132.26
-122.99
-111.66
-99.91
-89.02
-79.8
-72.65
-67.56
-64.23
-62.08
-60.47
-58.7
-56.28
-52.98
-48.91
-44.48
-40.28
-36.96
-35.02
-34.72
-36.02
-38.64
-42.06
-45.62
-48.64
-50.53
-50.95
-49.93
-47.85
-45.26
-42.76
-40.77
-39.51
-39.02
-39.3
-40.27
-41.76
-43.39
-44.52
-44.4
-42.38
-38.17
-31.93
-24.19
-15.63
-6.88
1.62
9.72
17.37
24.59
31.34
37.44
42.7
46.94
50.0
51.85
52.56
52.37
51.67
50.97
50.67
50.98
51.86
52.97
53.78
53.83
52.76
50.58
47.43
43.55
39.18
34.52
29.79
25.13
20.62
16.03
10.98
5.03
-2.08
-10.08
-18.28
-25.59
-30.94
-33.57
-33.34
-30.61
-26.17
-20.83
-15.27
-9.87
-4.74
0.11
4.6
8.43
11.18
12.5
12.28
10.8
8.56
6.13
4.01
2.45
1.47
1.03
1.12
1.83
3.34
5.81
9.3
13.81
19.15
25.05
31.05
36.6
41.04
43.87
44.93
44.47
43.16
41.76
40.88
40.72
41.0
41.12
40.44
38.52
35.24
30.96
26.41
22.55
20.34
20.51
23.3
28.34
34.75
41.37
47.25
51.75
54.46
55.1
53.42
49.23
42.49
33.39
22.29
9.81
-3.5
-17.5
-32.22
-47.55
-62.96
-77.36
-89.41
-97.77
-101.15
-99.17
-92.8
-83.96
-74.43
-65.2
-56.26
-47.03
-36.93
-25.05
-11.68
1.19
10.79
15.47
15.61
13.29
11.01
10.45
13.21
18.92
24.89
27.86
26.32
21.21
14.91
9.88
8.19
13.77
30.29
58.98
97.91
142.37
185.57
219.92
239.49
230.67
191.41
136.19
86.75
55.86
42.09
36.77
32.27
26.2
20.49
19.99
27.2
38.25
46.39
46.61
38.17
25.32
14.93
12.89
22.69
42.93
66.87
86.89
96.29
91.17
72.43
44.29
11.51
-21.75
-52.79
-81.38
-107.55
-130.32
-149.71
-165.05
-175.64
-182.28
-187.26
-192.93
-202.45
-217.02
-235.24
-256.13
-276.36
-290.83
-295.38
-288.86
-272.53
-251.69
-232.57
-202.57
-160.59
-114.79
-74.23
-41.8
-22.79
-10.7
-2.61
1.67
1.38
-2.68
-9.34
-14.83
-14.98
-7.87
6.64
25.23
44.52
62.4
76.03
84.12
87.13
85.86
80.44
71.86
60.89
49.64
41.01
36.22
35.56
38.9
45.37
53.38
61.83
69.46
75.88
81.23
85.23
87.44
87.83
86.58
83.85
80.16
75.82
71.27
67.01
63.13
59.49
55.93
52.3
48.46
44.48
40.49
36.7
33.33
30.45
27.95
25.6
23.3
21.11
19.13
17.51
16.08
14.46
12.17
8.91
4.68
-0.09
-4.82
-9.04
-12.53
-15.49
-18.21
-21.04
-24.12
-27.51
-31.07
-34.7
-38.24
-41.34
-43.5
-44.05
-42.33
-38.06
-31.44
-23.16
-14.12
-5.19
3.09
10.5
17.11
23.03
28.2
32.39
35.27
36.67
36.74
35.91
34.8
33.93
33.62
33.8
34.27
34.76
35.07
35.11
34.87
34.27
33.21
31.63
29.49
26.96
24.27
21.61
19.2
17.15
15.53
14.28
13.29
12.32
11.13
9.59
7.67
5.53
3.36
1.32
-0.59
-2.52
-4.56
-6.7
-8.82
-10.78
-12.5
-14.05
-15.59
-17.22
-18.99
-20.85
-22.83
-25.14
-28.1
-31.93
-36.51
-41.22
-44.99
-46.73
-45.65
-41.63
-35.23
-27.43
-19.19
-11.26
-4.03
2.36
7.84
12.35
15.84
18.29
19.83
20.72
21.15
21.25
21.12
20.8
20.42
20.17
20.22
20.64
21.43
22.41
23.38
24.17
24.68
24.85
24.61
23.76
22.18
19.78
16.75
13.57
10.91
9.2
8.58
8.64
8.6
7.68
5.48
2.07
-1.92
-5.76
-8.88
-11.08
-12.64
-14.17
-16.22
-19.17
-23.11
-27.81
-32.95
-38.24
-43.38
-48.1
-52.05
-54.67
-55.33
-53.57
-49.22
-42.67
-34.73
-26.43
-18.68
-12.04
-6.46
-1.67
2.74
7.08
11.33
15.25
18.51
20.92
22.54
23.61
24.41
25.19
26.07
27.03
27.98
28.81
29.44
29.88
30.16
30.3
30.29
30.02
29.33
28.01
25.9
22.88
19.04
14.68
10.16
5.87
1.97
-1.57
-4.96
-8.31
-11.69
-14.97
-17.93
-20.45
-22.45
-24.08
-25.56
-27.13
-29.03
-31.53
-34.84
-39.03
-43.93
-48.97
-53.33
-56.02
-56.27
-53.79
-48.76
-41.83
-33.85
-25.57
-17.53
-10.01
-3.06
3.37
9.25
14.53
18.96
22.35
24.54
25.65
25.97
25.89
25.79
25.83
25.99
26.11
26.04
25.73
25.27
24.72
24.03
22.99
21.33
19.03
16.22
13.25
10.43
7.87
5.35
2.58
-0.65
-4.27
-7.86
-11.04
-13.56
-15.48
-17.08
-18.69
-20.59
-22.93
-25.88
-29.53
-33.88
-38.67
-43.26
-46.74
-48.19
-47.01
-43.1
-36.9
-29.18
-20.8
-12.39
-4.39
2.95
9.42
14.81
18.86
21.46
22.66
22.7
21.98
20.97
20.08
19.66
19.89
20.85
22.43
24.35
26.2
27.39
27.3
25.38
21.44
15.75
9.06
2.42
-3.11
-6.81
-8.52
-8.59
-7.69
-6.6
-5.97
-6.3
-7.92
-11.05
-15.66
-21.5
-28.01
-34.28
-39.3
-42.18
-42.42
-39.99
-35.41
-29.41
-22.75
-15.93
-9.14
-2.32
4.61
11.65
18.64
25.28
31.32
36.67
41.37
45.62
49.65
53.71
57.97
62.45
67.06
71.51
75.48
78.67
80.86
82.06
82.36
81.81
80.24
77.33
72.57
65.45
55.6
42.96
27.72
10.31
-8.57
-27.95
-46.48
-62.62
-74.94
-82.6
-85.65
-85.0
-82.1
-78.28
-74.23
-69.88
-64.81
-58.73
-51.95
-45.3
-39.78
-36.03
-33.93
-32.73
-31.4
-29.19
-25.93
-22.02
-18.16
-14.84
-12.17
-9.71
-6.86
-3.16
1.5
6.65
11.53
15.32
17.49
18.09
17.65
16.93
16.49
16.43
16.29
15.32
12.84
8.64
3.12
-2.96
-8.89
-14.24
-19.15
-24.05
-29.37
-35.24
-41.42
-47.39
-52.72
-57.19
-60.85
-63.84
-66.11
-67.35
-67.02
-64.66
-60.08
-53.53
-45.53
-36.48
-26.63
-15.83
-4.0
8.69
21.61
33.81
44.37
52.75
58.99
63.48
66.77
69.24
71.06
72.35
73.24
74.0
74.93
76.14
77.47
78.6
79.17
79.09
78.54
77.92
77.65
78.02
79.14
80.75
82.42
83.44
83.0
80.23
74.49
65.7
54.41
41.83
29.37
18.1
8.26
-0.87
-10.66
-22.37
-36.67
-53.39
-71.65
-90.28
-108.21
-124.83
-140.02
-153.92
-166.63
-178.06
-188.0
-196.12
-201.92
-204.61
-203.18
-196.58
-183.89
-164.63
-139.26
-109.33
-77.15
-45.04
-14.5
13.91
40.33
65.03
88.64
111.23
132.02
149.68
163.02
171.65
175.94
176.62
174.61
171.98
170.42
170.21
170.13
168.41
163.96
156.68
147.23
136.76
128.58
125.28
127.05
131.17
133.59
130.99
121.71
105.9
85.34
65.77
53.15
51.31
60.89
80.74
109.33
145.03
185.54
209.53
200.91
157.38
92.25
23.08
-38.8
-89.47
-129.17
-159.31
-180.87
-191.5
-189.31
-175.42
-155.01
-135.32
-122.78
-120.77
-129.46
-145.61
-161.66
-170.15
-166.87
-152.61
-131.98
-110.89
-94.42
-85.28
-83.19
-84.23
-83.75
-78.61
-68.46
-54.98
-40.98
-30.54
-27.7
-34.18
-47.34
-61.55
-70.88
-71.15
-61.15
-42.34
-17.86
8.76
35.15
60.09
81.84
98.0
106.39
105.76
96.72
81.89
65.5
52.09
44.77
44.2
47.35
50.85
51.71
48.39
41.22
32.02
23.24
16.91
14.17
15.29
20.03
27.29
35.24
41.56
44.06
41.51
34.2
23.85
12.9
3.6
-3.44
-9.61
-17.91
-31.61
-52.51
-79.75
-109.36
-135.36
-151.57
-154.01
-142.43
-120.44
-94.01
-69.19
-49.98
-37.24
-29.34
-23.55
-17.86
-11.5
-4.7
2.4
10.21
19.32
29.72
40.07
48.19
52.2
52.06
49.95
49.42
53.4
62.25
73.24
81.55
82.58
74.05
56.73
33.9
9.64
-12.7
-31.3
-45.82
-56.61
-63.88
-67.22
-65.88
-59.25
-47.5
-31.85
-14.43
2.23
15.67
24.4
28.25
28.27
26.16
23.62
21.9
21.56
22.64
24.44
26.32
27.87
28.57
27.66
24.55
19.7
15.13
14.02
18.63
30.09
47.47
67.23
83.56
90.36
83.41
61.81
27.91
-15.29
-63.12
-109.93
-150.4
-180.86
-199.74
-207.69
-207.33
-202.96
-201.31
-206.52
-218.05
-231.19
-239.49
-237.37
-222.0
-194.07
-145.09
-78.9
-9.09
49.38
89.27
111.78
121.83
123.99
121.48
116.4
108.5
98.64
88.71
80.09
72.19
62.84
49.31
30.48
7.47
-18.32
-44.09
-66.66
-83.61
-93.76
-96.5
-90.92
-75.46
-48.96
-12.73
30.58
77.01
120.71
155.93
178.63
187.54
184.09
171.34
152.26
129.58
105.59
82.13
60.73
42.52
28.21
17.99
11.4
7.34
4.7
2.61
0.73
-0.78
-1.61
-1.6
-1.01
-0.54
-0.99
-2.99
-6.7
-11.67
-16.93
-21.47
-24.6
-26.26
-26.92
-27.37
-28.31
-30.17
-32.94
-36.31
-39.77
-42.79
-44.88
-45.68
-44.95
-42.65
-38.92
-34.04
-28.37
-22.3
-16.11
-9.99
-4.06
1.61
6.87
11.62
15.79
19.19
21.7
23.26
23.92
23.8
22.98
21.54
19.84
18.34
17.39
17.22
17.88
19.2
20.86
22.35
23.14
23.4
23.45
23.6
23.94
24.35
24.66
24.63
23.97
22.47
20.97
20.45
21.69
24.94
29.99
36.34
43.37
50.46
57.07
63.86
71.32
79.33
87.1
93.97
100.02
106.09
113.16
114.1
103.17
77.91
40.82
-2.3
-44.93
-81.25
-106.74
-118.72
-116.99
-103.07
-80.59
-54.57
-30.25
-11.71
0.25
5.68
5.8
2.66
-0.79
-2.34
-1.5
0.19
0.05
-4.27
-13.73
-27.05
-41.37
-52.85
-58.79
-57.88
-50.86
-40.17
-28.77
-19.2
-12.88
-10.16
-10.44
-12.71
-15.78
-18.55
-19.92
-18.94
-15.34
-9.56
-2.96
2.69
5.79
5.44
1.77
-4.14
-10.74
-16.64
-20.99
-23.64
-24.9
-25.16
-24.68
-23.5
-21.6
-18.98
-15.77
-12.17
-8.29
-4.08
0.5
5.37
10.21
14.49
17.92
20.64
23.29
26.64
31.14
36.59
42.07
46.4
48.69
48.65
46.64
43.4
39.54
35.3
30.65
25.46
19.73
13.7
7.76
2.25
-2.67
-7.04
-11.13
-15.15
-19.29
-23.53
-27.66
-31.29
-34.14
-36.0
-36.96
-37.34
-37.5
-37.72
-38.12
-38.57
-38.95
-39.2
-39.3
-39.19
-38.63
-37.19
-34.44
-30.16
-24.5
-18.0
-11.39
-5.22
0.25
5.12
9.66
14.15
18.67
23.16
27.35
30.92
33.47
34.61
34.09
31.89
28.34
24.08
19.99
16.84
15.16
15.09
16.36
18.46
20.74
22.66
23.77
23.88
23.01
21.36
19.31
17.21
15.39
14.02
13.16
12.71
12.45
12.18
11.75
11.07
10.1
8.77
6.94
4.5
1.48
-1.88
-5.09
-7.59
-8.92
-8.92
-7.66
-5.48
-2.69
0.49
3.93
7.56
11.26
14.91
18.38
21.58
24.42
26.8
28.5
29.31
29.07
27.8
25.7
23.11
20.37
17.75
15.43
13.44
11.79
10.46
9.5
8.93
8.72
8.78
8.9
8.75
8.0
6.4
3.97
0.99
-2.02
-4.56
-6.42
-7.81
-9.21
-11.23
-14.28
-18.38
-23.2
-28.12
-32.59
-36.2
-38.84
-40.61
-41.74
-42.57
-43.46
-44.77
-46.7
-49.16
-51.69
-53.58
-54.06
-52.61
-49.1
-43.82
-37.3
-30.08
-22.64
-15.35
-8.53
-2.48
2.56
6.49
9.43
11.67
13.61
15.58
17.65
19.66
21.31
22.31
22.46
21.83
20.58
18.96
17.21
15.49
13.88
12.4
11.05
9.81
8.65
7.55
6.51
5.55
4.69
3.88
2.97
1.83
0.35
-1.42
-3.29
-5.11
-6.82
-8.52
-10.44
-12.88
-15.95
-19.56
-23.37
-26.87
-29.5
-30.82
-30.51
-28.54
-25.13
-20.76
-16.01
-11.42
-7.27
-3.55
-0.05
3.42
6.87
10.0
12.37
13.54
13.3
11.8
9.43
6.72
4.05
1.62
-0.61
-2.77
-4.99
-7.42
-10.06
-12.96
-16.09
-19.43
-22.86
-26.19
-29.08
-31.15
-32.19
-32.21
-31.56
-30.75
-30.25
-30.23
-30.49
-30.57
-29.95
-28.43
-26.14
-23.49
-20.89
-18.42
-15.84
-12.67
-8.56
-3.48
2.25
8.08
13.41
17.85
21.26
23.68
25.2
25.9
25.8
24.95
23.44
21.44
19.15
16.78
14.42
12.17
10.07
8.19
6.62
5.49
4.84
4.56
4.34
3.78
2.56
0.52
-2.21
-5.3
-8.29
-10.84
-12.8
-14.25
-15.46
-16.75
-18.43
-20.72
-23.76
-27.47
-31.61
-35.6
-38.69
-40.06
-39.18
-35.94
-30.67
-24.05
-16.89
-9.87
-3.53
1.83
5.98
8.77
10.21
10.54
10.21
9.77
9.73
10.32
11.46
12.84
14.07
14.85
15.07
14.81
14.27
13.7
13.3
13.18
13.29
13.47
13.38
12.62
10.89
8.12
4.49
0.47
-3.52
-7.12
-10.2
-12.91
-15.6
-18.61
-22.14
-26.17
-30.28
-33.79
-35.84
-35.67
-32.87
-27.54
-20.26
-11.86
-3.23
4.83
11.82
17.49
21.77
24.83
26.94
28.4
29.47
30.31
30.88
31.13
31.02
30.64
30.11
29.62
29.23
28.78
28.01
26.66
24.6
21.89
18.76
15.48
12.3
9.3
6.45
3.62
0.74
-2.17
-5.0
-7.68
-10.13
-12.4
-14.64
-17.02
-19.68
-22.46
-24.9
-26.27
-25.92
-23.47
-18.96
-12.97
-6.44
-0.37
4.73
8.98
12.93
17.13
21.82
27.03
32.29
36.81
39.75
40.75
40.17
38.75
37.31
36.49
37.02
39.12
42.32
45.61
48.08
49.35
49.38
48.33
46.47
44.88
44.7
46.68
50.7
55.89
60.5
61.98
57.54
41.72
13.58
-21.5
-54.24
-77.13
-87.97
-88.84
-83.75
-76.33
-68.8
-61.41
-53.98
-47.08
-42.31
-40.86
-42.0
-42.83
-39.3
-28.02
-7.76
19.28
48.31
73.43
90.15
97.44
97.51
94.14
90.62
88.63
87.77
86.31
82.04
73.69
61.36
45.9
27.92
7.74
-14.3
-37.31
-57.21
-69.53
-71.39
-62.51
-45.11
-23.24
-0.8
19.38
36.01
48.9
58.06
63.62
66.19
66.9
66.33
65.6
65.31
65.38
65.09
63.28
59.1
52.71
45.32
38.03
32.17
28.31
25.92
23.31
17.51
4.67
-19.37
-52.23
-91.47
-131.94
-166.52
-187.77
-190.52
-173.95
-142.07
-102.24
-62.43
-29.54
-6.81
5.69
9.86
8.04
2.15
-6.31
-15.97
-25.39
-33.91
-41.1
-47.05
-52.06
-56.52
-60.3
-62.72
-62.83
-59.9
-53.95
-45.32
-34.53
-22.04
-8.34
6.06
20.49
34.07
45.73
54.48
59.97
62.71
63.86
64.64
65.99
68.27
71.13
73.71
74.97
74.11
70.83
65.37
58.0
49.92
42.99
39.03
39.15
43.34
50.51
58.73
65.52
67.0
59.92
42.19
13.25
-25.44
-70.17
-116.11
-159.12
-197.29
-232.53
-266.34
-298.0
-324.6
-342.84
-350.9
-349.7
-342.24
-331.62
-320.65
-307.28
-286.08
-252.21
-204.88
-147.94
-87.96
-31.1
30.54
94.14
150.83
192.7
217.77
228.64
229.01
221.99
210.53
197.4
183.25
169.92
159.49
152.58
147.39
140.75
129.53
112.88
91.85
67.39
42.05
18.82
-0.14
-14.08
-20.83
-20.92
-15.2
-4.95
6.99
18.25
27.37
33.85
37.8
39.68
39.53
37.54
33.93
28.75
23.15
19.02
18.2
21.37
27.81
35.43
42.1
46.21
46.72
43.51
36.9
27.4
15.59
2.48
-10.65
-21.99
-29.98
-34.09
-34.88
-33.77
-32.3
-31.43
-31.29
-31.45
-31.2
-29.98
-27.75
-24.68
-21.02
-16.82
-11.82
-5.7
1.44
9.02
16.15
21.8
25.41
26.92
26.95
26.54
26.73
28.15
30.88
34.42
37.78
39.76
39.09
34.82
26.55
14.46
-0.74
-17.98
-36.05
-53.8
-70.15
-84.14
-94.9
-101.76
-104.65
-104.17
-101.61
-98.47
-95.92
-94.23
-92.65
-89.64
-83.47
-73.07
-58.36
-40.28
-20.26
0.39
21.11
42.14
64.47
89.21
116.77
146.33
175.9
203.02
225.41
241.64
251.19
254.55
252.69
246.21
234.84
217.66
193.68
162.23
123.21
77.32
27.17
-22.65
-66.51
-99.36
-118.21
-123.06
-117.27
-106.62
-97.5
-93.94
-96.09
-100.83
-103.61
-100.13
-87.89
-66.97
-38.44
-8.37
14.62
25.29
24.98
18.88
12.3
8.44
7.84
8.41
6.42
-1.84
-18.75
-44.17
-76.21
-110.82
-142.66
-166.92
-181.01
-184.53
-178.36
-164.03
-143.12
-117.6
-90.32
-64.97
-43.98
-30.47
-25.2
-26.06
-29.75
-32.81
-33.13
-30.8
-27.37
-24.65
-23.96
-24.91
-26.31
-27.91
-29.56
-30.82
-31.16
-29.64
-25.07
-19.59
-15.12
-7.17
6.42
23.52
42.8
62.97
82.61
100.32
114.73
125.48
132.8
136.37
136.46
134.21
130.76
126.92
123.01
118.85
114.31
109.18
102.55
93.94
83.68
72.29
60.33
48.22
36.28
24.97
14.53
4.41
-6.11
-17.57
-30.33
-44.28
-58.77
-72.8
-85.08
-94.38
-99.97
-101.4
-98.59
-92.21
-83.68
-74.93
-67.88
-63.69
-62.42
-63.08
-63.88
-62.87
-58.57
-50.19
-37.67
-21.5
-2.66
17.34
36.5
52.57
63.52
68.17
66.58
59.97
50.29
39.53
29.13
19.68
11.14
3.07
-4.99
-13.44
-22.55
-32.43
-42.94
-53.64
-63.9
-73.03
-80.61
-86.45
-90.54
-92.92
-93.49
-92.07
-88.54
-82.96
-75.55
-66.63
-56.49
-45.22
-32.75
-18.92
-3.73
12.45
28.98
44.98
59.6
72.33
83.22
92.95
102.53
112.78
123.87
135.23
145.76
154.23
159.74
162.1
161.88
160.11
157.71
155.06
151.96
148.21
143.5
137.67
130.86
123.57
116.48
110.06
104.31
98.83
93.81
89.17
84.2
77.64
68.37
55.98
40.94
24.54
8.48
-4.39
-12.45
-16.11
-17.23
-17.52
-17.72
-17.75
-17.52
-17.32
-15.83
-12.12
-6.12
1.54
10.11
18.78
26.61
32.76
27.88
9.91
-15.35
-38.9
-56.2
-69.04
-82.01
-98.11
-116.01
-134.39
-149.25
-157.75
-159.9
-157.93
-154.42
-150.85
-145.79
-138.01
-126.89
-111.22
-91.45
-69.87
-49.58
-32.97
-21.0
-13.29
-9.13
-7.62
-6.75
-4.76
-0.67
5.51
13.01
20.55
26.73
30.31
30.86
29.41
27.29
25.43
23.96
22.66
21.25
19.52
16.97
12.88
6.77
-1.4
-10.83
-19.76
-26.01
-27.9
-25.07
-18.73
-11.13
-4.5
-0.35
0.94
-0.05
-1.97
-3.22
-2.07
3.07
13.2
28.2
46.71
66.34
84.3
98.2
106.46
108.44
104.59
96.08
84.54
71.81
59.71
49.68
42.58
38.04
34.93
31.99
28.19
22.85
15.63
6.62
-3.54
-13.72
-23.45
-32.37
-40.09
-46.26
-50.86
-54.25
-56.89
-58.95
-60.18
-61.48
-63.57
-66.4
-69.18
-71.0
-71.49
-70.94
-70.1
-69.77
-72.53
-80.5
-94.1
-111.92
-131.7
-151.52
-170.33
-187.8
-192.8
-178.02
-143.91
-99.0
-53.37
-13.05
20.32
47.34
69.16
86.83
99.25
105.29
105.21
100.93
94.95
89.26
84.81
81.6
79.02
74.73
66.49
53.17
35.11
13.88
-8.11
-27.65
-41.18
-45.72
-40.91
-28.72
-12.45
4.43
19.34
31.1
39.73
45.86
50.7
54.13
55.89
56.07
55.27
54.3
53.72
53.43
52.76
50.88
46.88
40.23
31.07
20.14
8.65
-1.9
-10.01
-14.5
-14.79
-11.36
-5.58
0.5
4.72
5.56
2.78
-2.57
-8.72
-13.95
-17.52
-19.59
-20.69
-21.12
-20.74
-19.14
-16.25
-12.54
-8.76
-5.71
-3.83
-3.59
-5.91
-12.15
-23.43
-39.47
-57.83
-74.21
-83.81
-83.13
-71.16
-49.42
-21.02
10.5
42.03
71.14
96.09
115.67
129.3
137.1
139.56
137.39
131.14
121.01
106.96
88.92
66.85
40.93
11.74
-19.53
-50.94
-79.96
-104.02
-121.15
-130.72
-133.52
-131.43
-126.67
-121.04
-115.55
-110.45
-105.61
-100.87
-96.25
-91.87
-87.9
-84.38
-81.29
-78.46
-75.67
-72.79
-69.65
-66.17
-62.43
-58.82
-56.05
-55.15
-56.92
-61.53
-68.1
-74.83
-79.51
-80.47
-77.2
-70.63
-62.57
-55.01
-49.25
-45.49
-42.92
-40.0
-35.03
-26.64
-14.1
2.41
21.8
42.35
62.12
79.49
93.45
103.75
110.63
114.6
116.2
116.17
115.5
115.34
116.82
120.46
125.97
132.18
137.46
140.22
139.66
135.87
129.82
122.98
116.76
112.13
109.52
108.79
109.33
110.18
110.05
107.46
100.88
89.0
71.05
47.17
18.53
-12.59
-43.35
-70.85
-92.81
-107.88
-115.75
-116.98
-112.69
-104.39
-93.78
-82.55
-72.12
-63.41
-56.56
-51.03
-45.87
-40.17
-33.56
-26.36
-19.52
-14.35
-12.04
-13.41
-18.49
-26.54
-36.17
-45.72
-53.75
-59.36
-62.33
-62.9
-61.65
-59.08
-55.67
-51.93
-48.44
-45.9
-44.84
-45.42
-47.19
-49.21
-50.3
-49.42
-45.8
-39.12
-29.42
-17.07
-2.73
12.62
27.64
40.77
50.59
56.12
57.16
54.27
48.56
41.2
33.04
24.47
15.56
6.32
-3.07
-12.21
-20.75
-28.62
-36.21
-44.35
-53.89
-65.39
-78.75
-93.16
-107.31
-119.75
-129.25
-135.0
-136.71
-134.45
-128.56
-119.48
-107.78
-94.13
-79.33
-64.14
-49.15
-34.62
-20.41
-6.29
7.95
22.17
35.9
48.42
59.1
67.59
73.99
78.63
81.96
84.32
85.88
86.73
86.81
86.14
84.74
82.66
79.96
76.71
72.95
68.77
64.22
59.35
54.16
48.68
42.97
37.16
31.39
25.73
20.12
14.41
8.44
2.12
-4.57
-11.6
-18.87
-26.13
-32.94
-38.54
-41.96
-42.37
-39.37
-33.25
-24.94
-15.59
-6.13
2.94
11.61
20.03
28.23
36.01
42.99
48.76
53.14
56.15
57.96
58.84
59.05
58.73
58.13
57.47
56.95
56.79
57.14
58.01
59.28
60.65
61.62
61.71
60.58
58.11
54.57
50.4
46.18
42.26
38.7
35.2
31.35
26.81
21.44
15.41
9.05
2.74
-3.27
-8.84
-14.02
-18.93
-23.82
-29.01
-34.77
-41.22
-48.09
-54.66
-59.94
-62.89
-62.76
-59.35
-53.05
-44.58
-34.81
-24.5
-14.11
-3.91
5.86
14.96
23.03
29.7
34.76
38.19
40.22
41.28
41.78
42.0
42.08
42.0
41.74
41.35
40.89
40.38
39.88
39.31
38.72
38.19
37.87
37.91
38.26
38.68
38.84
38.48
37.47
35.9
33.93
31.67
29.07
26.02
22.4
18.26
13.81
9.34
5.16
1.52
-1.49
-3.89
-5.8
-7.45
-9.17
-11.29
-14.13
-17.76
-22.04
-26.4
-30.04
-31.99
-31.41
-27.9
-21.56
-12.96
-2.89
7.85
18.84
29.92
41.09
52.3
63.28
73.61
82.8
90.46
96.29
100.24
102.3
102.56
101.22
98.59
95.08
91.02
86.53
81.48
75.63
68.73
60.76
52.06
43.1
34.5
26.64
19.63
13.33
7.38
1.28
-5.49
-13.41
-22.85
-33.8
-45.73
-57.62
-68.1
-76.0
-80.75
-82.59
-82.46
-81.54
-80.7
-80.21
-79.84
-79.1
-77.72
-75.76
-73.54
-71.29
-68.98
-66.21
-62.44
-57.22
-50.37
-42.07
-32.71
-22.66
-12.18
-1.33
10.05
22.22
35.28
49.09
63.06
76.32
88.01
97.68
105.55
112.6
120.11
128.99
139.13
149.26
157.32
161.32
160.18
154.28
145.34
135.77
127.84
123.05
121.88
123.75
127.14
129.63
128.15
119.51
101.27
72.72
35.31
-7.54
-51.45
-92.21
-126.81
-153.82
-173.27
-186.12
-193.75
-197.71
-199.5
-200.43
-201.36
-202.51
-203.45
-203.28
-201.08
-196.28
-188.97
-179.85
-169.94
-160.19
-151.11
-142.65
-134.29
-125.4
-115.44
-104.28
-92.23
-79.93
-68.11
-57.38
-48.02
-39.98
-33.01
-26.76
-21.0
-15.68
-10.88
-6.74
-3.39
-0.9
0.64
1.1
0.5
-0.98
-2.91
-4.77
-6.16
-7.06
-7.82
-8.99
-11.11
-14.35
-18.49
-22.93
-26.81
-29.3
-29.75
-27.83
-23.6
-17.53
-10.27
-2.55
5.05
12.16
18.66
24.45
29.52
33.86
37.45
40.32
42.47
43.88
44.45
44.15
43.04
41.2
38.65
35.28
30.86
25.2
18.25
10.32
1.94
-6.29
-13.86
-20.55
-26.35
-31.33
-35.59
-39.26
-42.49
-45.54
-48.81
-52.66
-57.28
-62.5
-67.68
-71.73
-73.56
-72.32
-67.82
-60.58
-51.61
-42.04
-32.77
-24.27
-16.64
-9.84
-3.86
1.23
5.33
8.5
11.01
13.25
15.65
18.36
21.36
24.39
27.11
29.33
31.07
32.53
33.94
35.45
37.01
38.4
39.27
39.31
38.31
36.31
33.47
30.03
26.18
21.92
17.06
11.29
4.42
-3.55
-12.25
-21.13
-29.5
-36.67
-42.11
-45.43
-46.48
-45.25
-41.99
-37.12
-31.13
-24.5
-17.64
-10.84
-4.27
1.9
7.54
12.47
16.59
19.84
22.34
24.34
26.2
28.28
30.76
33.52
36.19
38.27
39.37
39.43
38.75
37.83
37.12
36.81
36.78
36.83
36.8
36.74
36.81
37.12
37.53
37.64
36.91
34.91
31.47
26.76
21.25
15.56
10.22
5.53
1.49
-2.18
-5.96
-10.34
-15.66
-21.97
-28.95
-36.01
-42.41
-47.34
-50.14
-50.46
-48.38
-44.39
-39.2
-33.49
-27.74
-22.07
-16.38
-10.52
-4.52
1.37
6.68
10.93
13.84
15.38
15.8
15.42
14.52
13.35
12.1
10.97
10.19
9.94
10.31
11.12
12.04
12.55
12.12
10.45
7.5
3.52
-1.09
-5.83
-10.25
-13.98
-16.89
-19.04
-20.65
-22.07
-23.69
-25.84
-28.65
-31.94
-35.14
-37.5
-38.24
-36.93
-33.6
-28.79
-23.28
-17.75
-12.62
-7.81
-3.0
2.25
8.17
14.82
22.11
29.93
38.15
46.54
54.83
62.58
69.38
74.8
78.55
80.49
80.61
79.08
76.1
71.91
66.8
61.17
55.41
49.96
45.16
41.28
38.37
36.29
34.75
33.39
31.95
30.27
28.34
26.22
23.9
21.37
18.56
15.47
12.2
8.91
5.75
2.77
-0.06
-2.83
-5.65
-8.52
-11.47
-14.62
-18.17
-22.33
-27.11
-32.12
-36.61
-39.5
-39.93
-37.52
-32.63
-26.07
-18.95
-12.07
-5.83
-0.29
4.79
9.55
14.03
18.07
21.51
24.18
26.07
27.25
27.85
28.0
27.77
27.19
26.19
24.76
22.91
20.76
18.52
16.29
14.12
11.83
9.2
5.96
2.02
-2.54
-7.45
-12.27
-16.7
-20.47
-23.64
-26.56
-29.74
-33.66
-38.57
-44.25
-49.97
-54.72
-57.43
-57.4
-54.47
-49.12
-42.25
-34.79
-27.5
-20.68
-14.35
-8.29
-2.42
3.2
8.35
12.68
16.01
18.25
19.47
19.72
19.11
17.77
15.98
14.19
12.88
12.39
12.74
13.55
14.12
13.73
11.97
8.94
5.29
1.97
-0.16
-0.57
0.69
3.05
5.63
7.51
8.11
7.22
5.02
2.01
-1.35
-4.69
-7.89
-10.99
-14.25
-17.87
-22.02
-26.65
-31.46
-35.83
-39.04
-40.38
-39.42
-36.18
-31.03
-24.55
-17.28
-9.59
-1.6
6.52
14.5
21.93
28.24
33.07
36.28
38.01
38.59
38.38
37.61
36.45
35.07
33.66
32.57
32.08
32.31
33.18
34.32
35.2
35.39
34.66
33.06
30.91
28.62
26.48
24.71
23.24
21.92
20.6
19.18
17.66
16.09
14.51
12.83
11.02
9.01
6.83
4.63
2.59
0.8
-0.72
-2.15
-3.74
-5.74
-8.39
-11.75
-15.66
-19.83
-23.88
-27.52
-30.71
-33.63
-36.61
-39.92
-43.67
-47.69
-51.67
-55.22
-57.93
-59.36
-59.11
-56.8
-52.32
-45.81
-37.84
-29.18
-20.6
-12.59
-5.32
1.28
7.42
13.13
18.31
22.71
26.06
28.28
29.43
29.8
29.76
29.68
29.85
30.42
31.38
32.64
34.0
35.19
35.98
36.12
35.54
34.27
32.52
30.5
28.45
26.53
24.78
23.18
21.7
20.25
18.8
17.28
15.62
13.7
11.52
9.13
6.67
4.37
2.4
0.9
-0.2
-1.12
-2.14
-3.48
-5.21
-7.23
-9.31
-11.24
-12.93
-14.46
-16.05
-17.91
-20.22
-23.05
-26.42
-30.27
-34.44
-38.58
-42.13
-44.4
-44.77
-43.0
-39.26
-34.09
-28.09
-21.75
-15.24
-8.51
-1.55
5.49
12.17
17.99
22.51
25.63
27.49
28.47
28.94
29.17
29.26
29.17
28.8
28.06
26.99
25.75
24.58
23.68
23.09
22.62
21.93
20.74
18.84
16.3
13.28
10.02
6.63
3.1
-0.65
-4.71
-9.05
-13.54
-17.83
-21.57
-24.47
-26.41
-27.56
-28.33
-29.19
-30.54
-32.55
-35.19
-38.26
-41.53
-44.6
-47.04
-48.23
-47.59
-44.74
-39.73
-33.08
-25.64
-18.33
-11.71
-6.04
-1.21
2.98
6.7
9.93
12.56
14.43
15.45
15.73
15.4
14.7
13.78
12.71
11.59
10.39
9.21
8.11
7.19
6.54
6.08
5.63
4.89
3.58
1.5
-1.32
-4.68
-8.22
-11.65
-14.84
-17.82
-20.86
-24.19
-28.05
-32.47
-37.38
-42.58
-47.77
-52.56
-56.4
-58.74
-59.02
-57.02
-52.81
-46.83
-39.79
-32.34
-24.97
-17.86
-10.97
-4.2
2.41
8.56
13.8
17.63
19.78
20.27
19.47
17.94
16.27
14.78
13.53
12.39
11.09
9.57
7.85
6.0
4.1
2.06
-0.25
-2.91
-5.88
-9.07
-12.25
-15.27
-18.01
-20.41
-22.5
-24.3
-25.84
-27.12
-28.18
-29.12
-30.07
-31.2
-32.58
-34.02
-35.06
-34.98
-33.18
-29.35
-23.64
-16.62
-9.04
-1.57
5.32
11.5
16.99
21.85
26.17
30.02
33.39
36.22
38.33
39.47
39.47
38.4
36.51
34.24
32.0
30.02
28.25
26.44
24.33
21.73
18.72
15.53
12.44
9.59
6.89
4.07
0.72
-3.46
-8.59
-14.43
-20.48
-26.06
-30.57
-33.57
-34.95
-34.89
-33.82
-32.35
-31.25
-31.31
-33.13
-36.9
-42.08
-47.51
-51.6
-52.93
-50.71
-45.01
-36.64
-26.65
-15.83
-4.66
6.55
17.28
26.57
33.16
35.97
34.71
30.22
24.54
20.29
19.92
24.85
34.79
47.8
60.74
70.33
74.19
71.59
63.48
51.96
39.4
27.7
17.98
10.64
5.51
1.96
-1.04
-4.83
-10.6
-18.86
-29.06
-39.63
-48.57
-54.29
-56.17
-54.58
-50.38
-44.28
-36.47
-26.73
-14.85
-1.08
13.72
28.24
41.18
51.59
59.1
63.95
66.69
67.88
67.71
66.05
62.6
57.32
50.73
43.85
37.88
33.53
30.67
28.44
25.94
22.9
20.19
19.54
22.84
31.17
44.3
60.67
77.97
93.9
106.77
115.74
120.77
122.37
121.43
118.78
115.21
111.18
106.94
102.59
98.2
93.96
90.01
86.34
82.59
78.09
72.17
64.48
55.16
44.76
33.89
22.79
11.21
-1.41
-15.47
-30.78
-46.52
-61.43
-74.4
-84.81
-92.73
-98.77
-103.68
-108.05
-112.13
-116.06
-119.78
-123.29
-126.49
-129.12
-130.77
-130.88
-129.1
-125.3
-119.79
-113.0
-105.36
-97.06
-88.12
-78.56
-68.54
-58.47
-48.93
-40.43
-33.21
-27.19
-22.05
-17.39
-13.0
-8.77
-4.72
-0.83
2.97
6.76
10.51
14.06
17.19
19.72
21.69
23.4
25.26
27.71
30.86
34.51
38.15
41.29
43.49
44.6
44.7
44.06
43.04
41.91
40.87
39.92
38.89
37.5
35.43
32.44
28.47
23.71
18.55
13.49
8.93
5.08
1.92
-0.78
-3.26
-5.79
-8.52
-11.61
-15.21
-19.48
-24.55
-30.33
-36.42
-42.18
-46.78
-49.46
-49.75
-47.59
-43.31
-37.49
-30.86
-24.11
-17.85
-12.44
-7.97
-4.26
-1.01
2.15
5.39
8.67
11.74
14.23
15.91
16.69
16.72
16.22
15.44
14.52
13.54
12.6
11.79
11.36
11.59
12.79
15.19
18.77
23.19
27.77
31.7
34.28
35.2
34.6
33.02
30.91
28.43
25.39
21.48
16.63
11.37
6.69
3.56
2.5
3.28
5.0
6.55
7.09
6.2
3.93
0.57
-3.58
-8.29
-13.26
-18.3
-23.18
-27.88
-32.57
-37.58
-43.2
-49.48
-56.01
-62.01
-66.55
-68.91
-68.73
-66.15
-61.75
-56.29
-50.51
-44.87
-39.57
-34.55
-29.64
-24.68
-19.58
-14.4
-9.3
-4.54
-0.28
3.37
6.43
8.92
10.85
12.09
12.49
11.98
10.68
8.96
7.3
6.06
5.37
5.08
4.77
4.08
2.81
1.06
-0.89
-2.72
-4.2
-5.37
-6.43
-7.71
-9.45
-11.79
-14.66
-18.0
-21.72
-25.75
-30.02
-34.33
-38.23
-41.13
-42.38
-41.63
-38.91
-34.65
-29.48
-23.96
-18.37
-12.76
-7.02
-1.1
4.75
10.09
14.41
17.39
18.98
19.47
19.25
18.66
17.91
17.0
15.92
14.62
13.17
11.65
10.21
8.9
7.76
6.7
5.54
4.08
2.14
-0.34
-3.24
-6.22
-9.04
-11.57
-13.96
-16.59
-19.85
-23.96
-28.85
-34.05
-38.81
-42.33
-43.94
-43.3
-40.49
-35.9
-30.12
-23.7
-17.0
-10.17
-3.28
3.54
10.06
15.96
20.91
24.67
27.17
28.51
28.87
28.53
27.77
26.85
25.97
25.21
24.6
24.1
23.68
23.3
22.87
22.23
21.2
19.61
17.47
14.88
12.13
9.46
6.98
4.67
2.4
0.02
-2.65
-5.8
-9.63
-14.3
-19.83
-25.97
-32.15
-37.6
-41.55
-43.45
-43.09
-40.65
-36.51
-31.13
-24.98
-18.4
-11.65
-4.91
1.67
7.99
13.96
19.41
24.14
27.93
30.72
32.6
33.83
34.83
35.87
37.08
38.33
39.37
39.99
40.12
39.78
39.02
37.8
36.04
33.67
30.67
27.19
23.53
20.01
16.84
14.1
11.7
9.45
7.14
4.6
1.73
-1.48
-4.99
-8.7
-12.48
-16.27
-20.09
-24.12
-28.59
-33.69
-39.36
-45.17
-50.28
-53.74
-54.73
-52.91
-48.51
-42.22
-34.9
-27.28
-19.84
-12.7
-5.82
0.86
7.34
13.58
19.5
25.01
30.02
34.37
37.92
40.54
42.18
42.97
43.14
43.02
42.84
42.74
42.6
42.26
41.5
40.28
38.7
37.0
35.37
33.91
32.62
31.41
30.17
28.84
27.34
25.66
23.76
21.65
19.44
17.31
15.45
13.98
12.9
12.01
11.09
9.94
8.5
6.8
4.92
2.83
0.45
-2.34
-5.64
-9.46
-13.68
-18.07
-22.43
-26.59
-30.49
-34.06
-37.29
-40.23
-43.01
-45.86
-48.96
-52.3
-55.48
-57.84
-58.54
-56.95
-52.88
-46.61
-38.87
-30.48
-22.09
-14.06
-6.52
0.53
7.05
12.98
18.21
22.69
26.39
29.32
31.49
32.98
33.94
34.52
34.91
35.25
35.57
35.93
36.39
36.93
37.48
37.9
37.9
37.28
35.93
33.98
31.71
29.44
27.37
25.52
23.8
22.03
20.1
17.99
15.79
13.64
11.6
9.74
8.02
6.35
4.65
2.85
0.93
-1.14
-3.33
-5.68
-8.13
-10.66
-13.21
-15.79
-18.4
-21.01
-23.6
-26.15
-28.73
-31.43
-34.48
-38.07
-42.24
-46.66
-50.64
-53.34
-53.94
-52.02
-47.72
-41.65
-34.69
-27.57
-20.71
-14.15
-7.81
-1.63
4.23
9.53
14.02
17.62
20.47
22.75
24.61
26.02
26.91
27.19
26.97
26.42
25.84
25.42
25.18
24.96
24.56
23.82
22.68
21.19
19.43
17.52
15.56
13.62
11.81
10.21
8.85
7.73
6.77
5.89
4.96
3.86
2.4
0.47
-2.01
-4.96
-8.13
-11.19
-13.9
-16.2
-18.29
-20.55
-23.32
-26.81
-30.94
-35.37
-39.56
-42.96
-45.0
-45.27
-43.62
-40.18
-35.4
-29.83
-23.98
-18.23
-12.76
-7.58
-2.72
1.76
5.73
9.01
11.51
13.28
14.5
15.41
16.31
17.33
18.47
19.58
20.4
20.74
20.54
19.84
18.85
17.74
16.54
15.22
13.71
11.89
9.74
7.28
4.58
1.76
-1.03
-3.68
-6.07
-8.18
-10.11
-12.0
-14.17
-16.92
-20.5
-24.97
-30.2
-35.77
-41.1
-45.53
-48.32
-48.96
-47.22
-43.23
-37.42
-30.38
-22.7
-14.79
-6.93
0.73
8.04
14.77
20.65
25.31
28.54
30.26
30.69
30.19
29.15
27.94
26.8
25.82
24.89
23.87
22.58
20.98
19.2
17.45
15.91
14.67
13.61
12.48
11.05
9.15
6.75
3.93
0.77
-2.65
-6.26
-10.01
-13.78
-17.51
-21.2
-24.98
-29.0
-33.33
-37.76
-41.89
-45.1
-46.79
-46.56
-44.27
-40.14
-34.59
-28.1
-21.14
-14.06
-7.13
-0.5
5.73
11.51
16.84
21.68
26.0
29.66
32.52
34.42
35.31
35.31
34.71
33.89
33.19
32.77
32.63
32.59
32.41
31.93
31.09
29.96
28.61
27.11
25.46
23.65
21.77
19.89
18.11
16.46
14.93
13.39
11.73
9.87
7.79
5.56
3.21
0.74
-1.97
-5.03
-8.54
-12.4
-16.4
-20.23
-23.73
-26.97
-30.25
-33.95
-38.29
-43.12
-47.82
-51.5
-53.33
-52.77
-49.76
-44.71
-38.2
-30.89
-23.22
-15.44
-7.68
-0.09
7.13
13.74
19.44
24.04
27.53
30.01
31.74
32.99
33.9
34.53
34.84
34.76
34.38
33.86
33.41
33.22
33.35
33.7
34.08
34.33
34.34
34.15
33.81
33.32
32.65
31.73
30.46
28.79
26.75
24.41
21.91
19.34
16.77
14.24
11.79
9.4
7.07
4.76
2.43
0.05
-2.36
-4.78
-7.15
-9.41
-11.56
-13.65
-15.72
-17.86
-20.12
-22.6
-25.44
-28.85
-32.92
-37.62
-42.64
-47.43
-51.26
-53.4
-53.34
-50.9
-46.29
-40.08
-32.98
-25.65
-18.55
-11.97
-5.91
-0.33
4.8
9.44
13.47
16.78
19.32
21.14
22.37
23.18
23.79
24.33
24.8
25.13
25.19
24.91
24.32
23.56
22.78
22.09
21.51
20.89
20.04
18.76
16.99
14.8
12.43
10.17
8.24
6.7
5.4
4.09
2.57
0.73
-1.4
-3.67
-6.05
-8.57
-11.38
-14.63
-18.39
-22.57
-27.02
-31.61
-36.16
-40.54
-44.44
-47.34
-48.66
-47.91
-44.92
-40.01
-33.87
-27.25
-20.72
-14.5
-8.49
-2.55
3.3
8.85
13.78
17.85
20.97
23.25
24.8
25.73
26.05
25.78
25.03
23.96
22.84
21.88
21.16
20.63
20.16
19.56
18.77
17.79
16.68
15.51
14.27
12.79
10.88
8.43
5.35
1.81
-1.95
-5.69
-9.27
-12.69
-16.09
-19.69
-23.67
-28.15
-33.01
-37.93
-42.33
-45.49
-46.78
-45.74
-42.37
-37.08
-30.56
-23.56
-16.7
-10.32
-4.49
0.86
5.79
10.31
14.38
17.88
20.76
23.01
24.64
25.73
26.33
26.45
26.09
25.29
24.19
23.0
21.99
21.28
20.82
20.36
19.59
18.23
16.26
13.84
11.29
8.92
6.92
5.23
3.66
1.97
-0.05
-2.46
-5.19
-8.03
-10.86
-13.6
-16.3
-19.08
-22.05
-25.29
-28.86
-32.76
-36.91
-41.02
-44.62
-47.02
-47.55
-45.81
-41.87
-36.19
-29.53
-22.59
-15.82
-9.45
-3.44
2.25
7.66
12.7
17.23
21.14
24.37
26.94
28.88
30.33
31.39
32.23
32.93
33.52
34.03
34.42
34.7
34.82
34.79
34.55
34.06
33.28
32.15
30.69
28.86
26.69
24.3
21.84
19.46
17.23
15.15
13.09
10.98
8.81
6.66
4.68
2.95
1.43
0.02
-1.37
-2.8
-4.25
-5.71
-7.17
-8.74
-10.56
-12.71
-15.24
-18.06
-21.05
-24.13
-27.29
-30.61
-34.19
-38.1
-42.22
-46.33
-50.02
-52.78
-54.04
-53.44
-50.79
-46.26
-40.35
-33.7
-27.01
-20.73
-15.02
-9.7
-4.52
0.76
6.11
11.29
16.01
19.95
22.98
25.13
26.47
27.13
27.24
26.9
26.29
25.66
25.26
25.15
25.27
25.39
25.26
24.78
23.96
22.97
22.03
21.21
20.52
19.83
18.91
17.68
16.1
14.23
12.16
10.01
7.84
5.69
3.57
1.36
-0.97
-3.45
-6.09
-8.84
-11.71
-14.73
-17.9
-21.22
-24.66
-28.16
-31.68
-35.21
-38.75
-42.17
-45.21
-47.45
-48.39
-47.65
-45.11
-40.93
-35.47
-29.2
-22.52
-15.8
-9.3
-3.2
2.43
7.59
12.39
16.88
21.06
24.8
27.91
30.27
31.8
32.63
32.96
32.98
32.8
32.45
31.85
30.91
29.61
28.02
26.24
24.4
22.61
20.91
19.32
17.83
16.49
15.29
14.16
12.9
11.29
9.17
6.6
3.78
0.93
-1.83
-4.54
-7.37
-10.49
-13.88
-17.38
-20.7
-23.58
-26.01
-28.17
-30.33
-32.82
-35.86
-39.52
-43.61
-47.76
-51.39
-53.87
-54.68
-53.51
-50.44
-45.8
-40.09
-33.8
-27.27
-20.72
-14.28
-8.08
-2.33
2.76
7.11
10.74
13.8
16.47
18.85
20.92
22.57
23.66
24.03
23.69
22.69
21.23
19.6
18.05
16.76
15.69
14.68
13.52
12.04
10.26
8.28
6.29
4.41
2.61
0.76
-1.34
-3.84
-6.86
-10.47
-14.73
-19.55
-24.74
-29.96
-34.78
-38.77
-41.66
-43.37
-44.02
-43.76
-42.74
-41.11
-39.13
-37.21
-35.84
-35.42
-36.01
-37.24
-38.34
-38.35
-36.49
-32.3
-25.84
-17.52
-8.03
1.78
11.05
19.02
25.12
29.15
31.27
31.9
31.61
30.93
30.3
30.0
30.19
30.95
32.26
34.15
36.59
39.59
43.17
47.24
51.62
56.04
60.17
63.82
66.98
69.86
72.71
75.64
78.52
80.97
82.51
82.74
81.41
78.51
74.13
68.48
61.74
54.1
45.71
36.76
27.57
18.44
9.67
1.53
-5.85
-12.38
-18.05
-22.95
-27.23
-31.13
-34.96
-39.06
-43.65
-48.77
-54.12
-59.07
-62.89
-64.88
-64.68
-62.32
-58.22
-53.06
-47.49
-42.0
-36.76
-31.81
-27.03
-22.36
-17.76
-13.31
-9.08
-5.22
-1.8
1.1
3.39
5.02
5.96
6.32
6.28
6.14
6.25
6.86
8.1
9.8
11.58
13.02
13.71
13.53
12.57
11.03
9.13
7.0
4.65
2.04
-0.82
-3.85
-6.78
-9.41
-11.58
-13.36
-14.96
-16.72
-18.91
-21.72
-25.16
-29.07
-33.09
-36.68
-39.23
-40.12
-38.9
-35.48
-30.27
-24.06
-17.81
-12.24
-7.69
-3.94
-0.52
3.08
7.18
11.65
16.15
20.27
23.77
26.59
28.85
30.68
32.08
32.94
33.12
32.6
31.59
30.49
29.71
29.5
29.81
30.22
30.19
29.26
27.28
24.4
21.12
17.89
15.09
12.8
10.81
8.78
6.46
3.76
0.78
-2.31
-5.39
-8.43
-11.5
-14.71
-18.12
-21.72
-25.51
-29.43
-33.36
-37.02
-39.92
-41.44
-41.07
-38.65
-34.45
-29.17
-23.59
-18.23
-13.31
-8.64
-3.98
0.76
5.54
10.05
13.99
17.19
19.73
21.85
23.84
25.83
27.69
29.22
30.21
30.6
30.45
29.97
29.37
28.83
28.45
28.21
28.17
28.27
28.21
27.41
25.11
20.81
14.65
7.16
-0.88
-8.58
-15.55
-21.97
-28.46
-35.62
-43.56
-51.5
-58.73
-64.9
-69.75
-73.56
-77.07
-81.24
-87.1
-95.19
-105.14
-116.65
-129.39
-142.23
-153.97
-163.65
-170.65
-174.73
-175.51
-171.78
-163.02
-149.07
-129.13
-102.53
-69.08
-29.29
14.3
54.66
91.02
126.79
161.79
197.35
235.24
276.7
321.49
367.24
409.71
444.19
465.51
469.91
457.37
430.96
395.82
357.56
320.83
288.78
263.29
244.16
229.57
217.18
203.99
186.69
162.31
129.03
86.96
38.69
-11.91
-60.35
-102.35
-135.28
-158.81
-174.72
-185.84
-194.71
-202.51
-209.36
-214.9
-218.83
-221.46
-223.52
-225.57
-227.46
-228.37
-227.22
-223.44
-217.24
-209.32
-200.5
-191.19
-181.24
-170.06
-157.09
-142.16
-125.62
-108.32
-91.33
-75.59
-61.6
-49.38
-38.53
-28.5
-18.93
-9.75
-1.3
5.89
11.4
15.05
17.03
17.79
17.82
17.45
16.79
15.68
13.89
11.26
7.84
3.87
-0.24
-4.02
-7.0
-8.83
-9.39
-8.75
-7.22
-5.27
-3.41
-2.15
-1.75
-2.25
-3.4
-4.81
-6.03
-6.65
-6.49
-5.54
-4.0
-2.17
-0.27
1.57
3.35
5.11
6.83
8.41
9.79
10.95
12.01
13.16
14.53
16.13
17.81
19.36
20.62
21.65
22.55
23.48
24.44
25.19
25.44
24.87
23.38
21.1
18.41
15.72
13.38
11.5
9.96
8.57
7.15
5.64
4.1
2.61
1.21
-0.09
-1.32
-2.49
-3.57
-4.56
-5.52
-6.6
-8.01
-9.89
-12.3
-15.05
-17.86
-20.43
-22.62
-24.44
-26.05
-27.69
-29.47
-31.32
-32.97
-33.96
-33.83
-32.26
-29.17
-24.76
-19.34
-13.38
-7.26
-1.38
3.9
8.28
11.42
13.17
13.48
12.6
10.94
9.04
7.35
6.12
5.38
4.91
4.4
3.56
2.26
0.55
-1.43
-3.56
-5.83
-8.37
-11.36
-14.96
-19.2
-23.91
-28.88
-33.96
-39.19
-44.81
-51.15
-58.5
-66.97
-76.41
-86.55
-97.15
-108.21
-119.9
-132.55
-146.38
-161.28
-176.84
-192.37
-207.21
-220.99
-233.79
-246.07
-258.48
-271.51
-285.25
-299.21
-312.28
-322.76
-328.66
-328.15
-320.07
-304.35
-281.83
-253.96
-222.02
-186.61
-147.45
-103.64
-54.23
0.99
60.99
123.29
184.01
238.51
282.27
311.96
326.34
326.62
316.01
298.84
279.45
261.31
246.74
236.97
232.31
232.44
236.44
242.96
250.4
257.28
262.56
265.9
267.44
267.57
266.63
264.67
261.49
256.67
249.84
240.75
229.47
216.4
202.19
187.76
174.18
162.36
152.91
145.89
140.84
137.02
133.72
130.54
127.54
124.92
122.67
120.45
117.49
112.92
106.25
97.63
87.82
78.11
69.82
63.98
61.18
61.32
63.77
67.47
71.18
73.71
74.31
72.71
69.33
65.17
61.45
59.13
58.57
59.28
60.04
59.29
55.6
48.13
36.85
22.35
5.47
-12.92
-32.31
-52.39
-72.99
-93.95
-114.92
-135.19
-153.73
-169.41
-181.16
-188.46
-191.44
-190.92
-188.16
-184.46
-180.8
-177.72
-175.42
-173.74
-172.38
-170.8
-168.35
-164.39
-158.5
-150.69
-141.28
-130.89
-120.06
-109.25
-98.69
-88.51
-78.87
-69.91
-61.83
-54.77
-48.83
-43.92
-39.94
-36.7
-33.99
-31.67
-29.55
-27.54
-25.55
-23.55
-21.49
-19.45
-17.54
-15.98
-15.08
-15.14
-16.34
-18.63
-21.73
-25.17
-28.48
-31.32
-33.59
-35.48
-37.35
-39.7
-42.91
-47.2
-52.51
-58.42
-64.24
-69.16
-72.55
-74.17
-74.29
-73.47
-72.38
-71.42
-70.6
-69.67
-68.33
-66.55
-64.7
-63.49
-63.66
-65.68
-69.46
-74.42
-79.71
-84.42
-87.88
-89.79
-90.24
-89.59
-88.46
-87.4
-86.74
-86.29
-85.08
-81.57
-74.14
-61.83
-44.87
-24.85
-4.23
14.7
30.7
44.21
56.91
70.82
87.11
105.49
124.33
141.52
155.41
165.3
171.48
174.72
175.79
175.2
173.31
170.47
167.22
164.12
161.41
158.92
156.12
152.55
148.09
143.1
138.31
134.64
132.93
133.64
136.48
140.23
142.77
141.65
134.9
122.03
104.5
85.46
68.73
57.36
52.49
52.97
55.95
57.97
56.17
49.1
36.91
21.16
4.21
-11.3
-23.18
-30.06
-31.72
-29.08
-23.94
-18.21
-13.54
-10.85
-10.51
-12.66
-17.41
-24.84
-34.77
-46.69
-59.66
-72.65
-84.91
-96.06
-105.94
-114.36
-120.83
-124.65
-125.25
-122.48
-116.96
-109.79
-102.13
-94.84
-88.21
-82.0
-75.75
-69.05
-61.79
-54.2
-46.74
-39.84
-33.78
-28.57
-24.05
-19.95
-15.99
-11.92
-7.52
-2.63
2.89
9.11
16.04
23.58
31.61
39.84
47.98
55.74
62.95
69.7
76.26
83.01
90.14
97.37
103.88
108.59
110.56
109.58
106.34
102.24
98.8
97.17
97.71
100.02
103.31
106.65
109.01
109.23
105.98
98.01
84.74
66.77
45.84
24.46
4.99
-11.29
-24.37
-35.22
-45.13
-54.86
-64.53
-73.77
-82.18
-89.71
-96.66
-103.35
-109.89
-116.08
-121.59
-126.35
-130.67
-135.08
-140.11
-145.89
-152.07
-158.11
-163.67
-168.82
-174.12
-180.18
-187.15
-194.5
-200.9
-204.62
-203.97
-197.87
-186.09
-169.27
-148.64
-125.52
-101.03
-75.92
-50.75
-26.15
-3.14
16.78
31.87
40.5
41.8
35.88
24.08
8.61
-7.83
-22.69
-34.06
-40.97
-43.46
-42.28
-38.55
-33.28
-27.21
-20.76
-14.25
-7.99
-2.35
2.35
6.2
9.7
13.76
19.37
27.13
36.92
47.73
58.06
66.36
71.74
74.25
74.72
74.38
74.16
74.35
74.57
74.17
72.69
70.17
67.07
63.84
60.73
57.47
53.56
48.6
42.54
35.76
28.89
22.5
16.82
11.89
7.51
3.44
-0.51
-4.47
-8.51
-12.73
-17.2
-22.04
-27.36
-33.18
-39.42
-45.72
-51.49
-55.98
-58.47
-58.43
-55.76
-50.68
-43.76
-35.63
-26.91
-18.09
-9.54
-1.48
5.94
12.6
18.44
23.38
27.45
30.75
33.44
35.76
37.9
39.98
42.0
43.81
45.26
46.27
46.9
47.32
47.75
48.33
49.0
49.51
49.47
48.53
46.52
43.56
39.94
36.08
32.32
28.72
25.06
20.98
16.14
10.43
4.08
-2.47
-8.66
-14.05
-18.46
-22.01
-25.16
-28.51
-32.59
-37.64
-43.43
-49.26
-54.13
-57.03
-57.34
-54.96
-50.28
-43.98
-36.66
-28.69
-20.24
-11.37
-2.28
6.73
15.24
22.91
29.5
34.88
39.09
42.25
44.55
46.31
47.89
49.57
51.51
53.67
55.87
57.94
59.71
61.07
61.81
61.72
60.51
58.0
54.2
49.42
44.12
38.74
33.61
28.87
24.58
20.82
17.64
15.16
13.33
12.0
10.74
9.12
6.72
3.38
-0.82
-5.54
-10.37
-14.98
-19.18
-23.07
-26.86
-30.87
-35.34
-40.39
-46.01
-51.98
-57.85
-62.86
-66.09
-66.59
-63.82
-57.83
-49.4
-39.66
-29.73
-20.38
-11.8
-3.82
3.83
11.26
18.3
24.54
29.65
33.54
36.29
38.25
39.75
41.05
42.26
43.42
44.48
45.44
46.41
47.41
48.49
49.48
50.21
50.45
50.07
49.05
47.44
45.41
43.08
40.67
38.31
36.09
34.03
32.07
30.07
27.85
25.34
22.55
19.7
17.03
14.71
12.79
11.19
9.7
8.09
6.17
3.78
0.87
-2.59
-6.51
-10.75
-15.07
-19.3
-23.41
-27.58
-32.15
-37.4
-43.45
-50.08
-56.63
-62.15
-65.58
-66.02
-63.05
-56.89
-48.29
-38.39
-28.39
-19.15
-11.1
-4.2
1.82
7.3
12.4
17.17
21.53
25.4
28.7
31.41
33.52
35.06
36.08
36.64
36.91
37.08
37.32
37.74
38.28
38.72
38.84
38.39
37.27
35.62
33.67
31.69
29.88
28.25
26.67
25.02
23.15
20.98
18.5
15.77
12.95
10.24
7.78
5.56
3.39
1.0
-1.92
-5.45
-9.48
-13.71
-17.82
-21.63
-25.12
-28.45
-31.9
-35.73
-40.16
-45.28
-50.84
-56.2
-60.44
-62.52
-61.67
-57.75
-51.25
-43.17
-34.58
-26.29
-18.62
-11.56
-4.92
1.44
7.43
12.87
17.59
21.45
24.45
26.69
28.36
29.6
30.59
31.43
32.12
32.62
32.89
32.98
33.03
33.17
33.42
33.63
33.5
32.8
31.46
29.62
27.59
25.7
24.07
22.64
21.24
19.67
17.85
15.84
13.75
11.65
9.57
7.35
4.81
1.79
-1.77
-5.77
-10.02
-14.29
-18.46
-22.48
-26.52
-30.76
-35.41
-40.63
-46.44
-52.68
-58.89
-64.37
-68.21
-69.65
-68.24
-64.05
-57.66
-49.88
-41.51
-33.04
-24.64
-16.31
-8.09
-0.18
7.07
13.28
18.27
22.04
24.84
26.96
28.61
29.95
31.03
31.91
32.6
33.17
33.66
34.17
34.76
35.48
36.37
37.29
38.08
38.47
38.35
37.66
36.54
35.21
33.89
32.67
31.52
30.33
28.84
26.85
24.22
20.91
17.04
12.87
8.67
4.65
0.93
-2.51
-5.78
-9.08
-12.56
-16.31
-20.3
-24.38
-28.37
-32.12
-35.59
-38.9
-42.29
-46.12
-50.6
-55.81
-61.46
-66.88
-71.2
-73.48
-72.98
-69.41
-63.01
-54.44
-44.65
-34.51
-24.65
-15.44
-7.02
0.58
7.34
13.17
18.02
21.91
24.97
27.44
29.51
31.39
33.12
34.65
35.97
37.07
38.08
39.15
40.4
41.77
43.06
43.97
44.21
43.66
42.31
40.35
37.89
35.13
32.24
29.41
26.79
24.5
22.59
20.93
19.34
17.6
15.63
13.48
11.34
9.37
7.54
5.63
3.3
0.27
-3.54
-7.9
-12.35
-16.42
-19.8
-22.55
-24.92
-27.29
-30.06
-33.49
-37.74
-42.78
-48.35
-53.85
-58.46
-61.22
-61.4
-58.77
-53.64
-46.82
-39.26
-31.75
-24.64
-17.96
-11.45
-4.94
1.59
8.03
14.05
19.38
23.78
27.18
29.63
31.22
32.07
32.32
32.13
31.59
30.81
29.95
29.15
28.51
28.13
27.94
27.8
27.51
26.83
25.71
24.25
22.68
21.35
20.47
20.06
19.87
19.51
18.61
17.0
14.77
12.09
9.2
6.13
2.81
-0.98
-5.35
-10.21
-15.21
-19.9
-23.89
-26.95
-29.16
-30.83
-32.36
-34.1
-36.36
-39.35
-43.18
-47.74
-52.67
-57.24
-60.55
-61.72
-60.15
-55.8
-49.19
-41.2
-32.8
-24.71
-17.28
-10.52
-4.25
1.73
7.44
12.73
17.4
21.28
24.38
26.8
28.75
30.34
31.6
32.45
32.88
32.96
32.93
33.1
33.65
34.64
35.79
36.73
37.1
36.69
35.52
33.77
31.68
29.37
26.97
24.53
22.09
19.76
17.58
15.49
13.28
10.72
7.62
4.07
0.32
-3.32
-6.63
-9.61
-12.42
-15.27
-18.26
-21.41
-24.54
-27.46
-29.97
-31.95
-33.53
-34.91
-36.53
-38.85
-42.19
-46.49
-51.29
-55.73
-58.81
-59.76
-58.17
-54.17
-48.26
-41.13
-33.44
-25.76
-18.38
-11.38
-4.72
1.71
7.96
13.95
19.49
24.36
28.28
31.12
32.92
33.9
34.4
34.82
35.44
36.41
37.64
38.91
39.91
40.36
40.14
39.23
37.66
35.48
32.76
29.57
26.11
22.71
19.69
17.28
15.51
14.15
12.88
11.38
9.49
7.28
4.97
2.82
0.97
-0.61
-2.14
-3.87
-6.05
-8.77
-11.96
-15.26
-18.39
-21.11
-23.41
-25.52
-27.8
-30.61
-34.17
-38.47
-43.24
-48.02
-52.19
-55.05
-56.03
-54.77
-51.28
-45.95
-39.36
-32.21
-25.05
-18.16
-11.63
-5.45
0.32
5.52
9.96
13.53
16.16
18.02
19.36
20.49
21.6
22.81
24.03
25.14
26.06
26.78
27.31
27.69
27.91
27.9
27.61
27.04
26.25
25.34
24.43
23.5
22.44
21.08
19.27
16.89
13.95
10.52
6.73
2.76
-1.23
-5.11
-8.77
-12.16
-15.28
-18.14
-20.79
-23.3
-25.75
-28.2
-30.79
-33.72
-37.14
-41.13
-45.44
-49.56
-52.73
-54.15
-53.24
-49.86
-44.37
-37.5
-30.05
-22.67
-15.7
-9.11
-2.71
3.64
9.97
16.05
21.59
26.26
29.91
32.48
34.08
34.87
34.97
34.53
33.67
32.64
31.69
31.11
31.06
31.64
32.71
34.0
35.2
35.99
36.21
35.8
34.86
33.55
32.06
30.49
28.76
26.72
24.19
21.16
17.75
14.25
10.98
8.19
5.94
4.09
2.44
0.8
-0.91
-2.66
-4.36
-5.87
-7.13
-8.08
-8.79
-9.36
-10.04
-11.05
-12.62
-14.85
-17.66
-20.93
-24.45
-28.14
-31.95
-36.0
-40.4
-45.16
-50.17
-55.13
-59.59
-62.92
-64.54
-63.92
-60.9
-55.67
-48.78
-41.0
-33.06
-25.52
-18.63
-12.37
-6.59
-1.12
4.1
9.0
13.43
17.24
20.35
22.79
24.69
26.17
27.36
28.38
29.28
30.16
31.11
32.15
33.21
34.15
34.77
34.95
34.67
34.01
33.07
31.97
30.75
29.39
27.85
26.1
24.17
22.15
20.24
18.55
17.15
15.99
14.91
13.78
12.53
11.17
9.79
8.47
7.25
6.07
4.79
3.22
1.19
-1.41
-4.6
-8.28
-12.3
-16.39
-20.37
-24.08
-27.59
-31.1
-34.88
-39.13
-43.92
-49.07
-54.14
-58.44
-61.2
-61.75
-59.81
-55.52
-49.44
-42.32
-34.88
-27.64
-20.83
-14.48
-8.56
-3.02
2.17
7.07
11.75
16.21
20.39
24.14
27.29
29.73
31.49
32.68
33.42
33.82
33.95
33.83
33.47
32.84
31.93
30.69
29.11
27.21
25.11
22.97
21.0
19.38
18.17
17.23
16.35
15.24
13.78
11.98
9.96
7.88
5.8
3.63
1.18
-1.7
-4.96
-8.38
-11.65
-14.56
-17.1
-19.49
-22.05
-25.02
-28.54
-32.61
-37.14
-41.99
-46.9
-51.42
-54.89
-56.55
-55.74
-52.23
-46.36
-38.9
-30.84
-22.99
-15.79
-9.28
-3.32
2.24
7.38
11.97
15.83
18.91
21.31
23.21
24.79
26.06
26.97
27.42
27.41
27.11
26.75
26.57
26.76
27.34
28.13
28.9
29.45
29.64
29.44
28.88
28.04
27.02
25.89
24.62
23.15
21.47
19.58
17.59
15.64
13.82
12.09
10.28
8.15
5.52
2.41
-1.03
-4.45
-7.64
-10.53
-13.23
-15.9
-18.63
-21.36
-23.99
-26.4
-28.51
-30.33
-31.99
-33.67
-35.65
-38.16
-41.38
-45.27
-49.39
-52.99
-55.16
-55.21
-52.86
-48.37
-42.34
-35.49
-28.41
-21.41
-14.58
-7.89
-1.37
4.89
10.67
15.78
20.1
23.55
26.21
28.18
29.56
30.47
30.97
31.19
31.22
31.22
31.31
31.59
32.05
32.67
33.42
34.23
35.05
35.8
36.42
36.91
37.33
37.71
38.09
38.47
38.74
38.78
38.55
38.09
37.53
37.06
36.81
36.84
37.12
37.46
37.68
37.55
36.85
35.45
33.21
30.11
26.28
21.98
17.58
13.5
10.01
7.18
4.77
2.41
-0.26
-3.47
-7.35
-12.0
-17.48
-23.89
-31.05
-38.54
-45.6
-51.38
-55.2
-56.68
-55.8
-52.85
-48.38
-43.14
-38.0
-33.88
-31.38
-30.62
-31.09
-31.84
-31.98
-31.1
-29.43
-27.64
-26.39
-25.92
-26.01
-26.09
-25.71
-24.77
-23.48
-22.16
-21.06
-20.19
-19.4
-18.6
-17.76
-17.05
-16.69
-16.74
-17.08
-17.51
-17.76
-17.69
-17.31
-16.77
-16.33
-16.35
-17.01
-18.35
-20.15
-22.02
-23.53
-24.31
-24.17
-23.01
-20.75
-17.34
-12.74
-7.11
-0.75
5.84
12.12
17.6
21.93
24.86
26.22
25.97
24.2
21.37
18.05
14.84
12.18
10.13
8.51
7.04
5.6
4.31
3.5
3.44
4.21
5.63
7.28
8.64
9.37
9.38
8.87
8.18
7.66
7.53
7.81
8.39
9.1
9.76
10.33
10.93
11.72
12.89
14.53
16.6
18.88
21.12
23.1
24.71
26.0
26.97
27.63
27.94
27.89
27.61
27.31
27.12
26.89
26.14
24.15
20.35
14.59
7.35
-0.44
-7.7
-13.5
-17.35
-19.31
-19.83
-19.62
-19.46
-20.05
-21.85
-25.05
-29.57
-35.13
-41.41
-48.05
-54.66
-60.76
-65.91
-69.8
-72.45
-74.11
-75.19
-75.88
-76.01
-74.99
-72.08
-66.83
-59.33
-50.28
-40.69
-31.41
-22.87
-14.98
-7.35
0.4
8.33
16.23
23.73
30.55
36.74
42.59
48.46
54.58
60.84
66.92
72.36
76.84
80.29
83.03
85.57
88.5
92.22
96.8
101.97
107.25
112.08
115.94
118.65
120.23
121.03
121.54
122.36
123.94
126.42
129.52
132.62
134.98
136.06
135.8
134.57
132.99
131.5
130.13
128.34
125.15
119.49
110.48
97.79
81.82
63.71
45.2
28.15
14.12
3.78
-3.13
-7.69
-11.21
-14.75
-18.84
-23.41
-28.12
-32.66
-37.03
-41.46
-46.28
-51.61
-57.23
-62.59
-67.16
-70.6
-73.06
-75.11
-77.53
-80.9
-85.33
-90.34
-95.02
-98.5
-100.26
-100.32
-99.17
-97.44
-95.67
-94.13
-92.84
-91.67
-90.52
-89.35
-88.2
-86.99
-85.53
-83.47
-80.48
-76.43
-71.52
-66.28
-61.42
-57.59
-55.19
-54.23
-54.36
-55.01
-55.62
-55.86
-55.72
-55.62
-56.16
-58.02
-61.64
-67.09
-73.99
-81.65
-89.15
-95.57
-100.2
-102.59
-102.7
-100.68
-97.02
-92.19
-86.66
-80.73
-74.52
-68.04
-61.2
-53.99
-46.45
-38.79
-31.32
-24.38
-18.25
-13.12
-9.02
-5.79
-3.24
-1.12
0.75
2.41
3.82
4.85
5.31
5.09
4.23
2.87
1.26
-0.33
-1.81
-3.17
-4.55
-6.07
-7.87
-10.02
-12.64
-15.92
-20.11
-25.43
-31.94
-39.46
-47.47
-55.22
-61.85
-66.67
-69.29
-69.8
-68.75
-67.03
-65.68
-65.43
-66.53
-68.62
-70.76
-71.84
-70.82
-67.08
-60.44
-51.13
-39.53
-26.02
-10.85
5.78
23.62
42.35
61.24
79.33
95.5
108.77
118.74
125.88
131.6
137.75
146.1
157.48
171.61
187.16
202.37
215.77
226.69
235.3
242.19
247.9
252.28
254.48
253.03
246.26
232.97
212.71
186.1
154.61
120.28
85.37
51.83
21.05
-6.57
-31.76
-56.42
-82.88
-112.67
-145.4
-178.12
-206.04
-224.29
-230.06
-223.79
-209.08
-190.99
-173.94
-160.26
-149.9
-141.38
-132.99
-123.78
-113.52
-102.29
-89.99
-76.17
-60.37
-42.59
-23.6
-4.87
11.94
25.66
36.2
44.6
52.43
60.9
70.17
79.1
85.74
88.3
86.04
79.71
71.2
62.82
56.31
52.29
50.17
48.51
45.78
40.94
33.77
24.82
15.09
5.52
-3.29
-11.18
-18.23
-24.56
-30.05
-34.45
-37.53
-39.36
-40.31
-40.92
-41.58
-42.38
-42.96
-42.7
-41.06
-37.74
-33.0
-27.46
-21.97
-17.31
-13.9
-11.71
-10.46
-9.77
-9.36
-9.17
-9.23
-9.49
-9.64
-9.02
-6.78
-2.17
5.22
15.36
27.77
41.75
56.55
71.54
86.22
100.17
113.09
124.98
136.31
147.96
160.94
175.74
191.7
206.82
218.22
223.07
219.78
208.51
190.96
169.64
146.81
123.85
101.27
79.04
57.02
35.19
13.5
-8.18
-29.97
-51.8
-73.21
-93.34
-111.33
-126.61
-139.19
-149.52
-158.17
-165.59
-171.95
-177.16
-180.97
-183.13
-183.4
-181.63
-177.76
-171.97
-164.69
-156.56
-148.22
-140.02
-131.85
-122.97
-112.29
-98.73
-81.65
-61.25
-38.5
-14.97
7.64
27.99
45.34
59.71
71.61
81.81
90.98
99.44
107.15
113.8
118.91
122.1
123.16
122.19
119.59
115.9
111.63
107.14
102.54
97.68
92.27
86.05
78.77
70.36
60.91
50.68
40.01
29.22
18.49
7.9
-2.4
-12.13
-20.67
-27.23
-31.16
-32.41
-31.63
-30.13
-29.21
-29.74
-31.91
-35.5
-40.3
-46.59
-55.14
-66.81
-82.14
-100.82
-121.68
-143.02
-163.04
-180.29
-193.91
-203.6
-209.41
-211.58
-210.31
-205.78
-198.28
-188.24
-176.17
-162.6
-147.9
-132.14
-115.29
-97.18
-77.84
-57.47
-36.43
-15.07
6.36
27.52
47.82
66.27
81.74
93.36
100.95
105.18
107.25
108.36
109.19
109.7
109.4
107.69
104.35
99.63
94.16
88.5
82.93
77.4
71.59
65.23
58.14
50.49
42.58
34.86
27.53
20.54
13.49
5.88
-2.61
-12.05
-22.08
-32.1
-41.38
-49.24
-55.03
-58.25
-58.55
-55.76
-50.04
-41.8
-31.72
-20.61
-9.21
1.95
12.63
22.78
32.39
41.31
49.3
55.97
60.97
64.2
65.81
66.21
65.85
65.07
63.94
62.36
60.17
57.27
53.81
50.02
46.29
42.91
40.01
37.54
35.22
32.73
29.8
26.37
22.46
18.26
13.89
9.37
4.66
-0.39
-5.77
-11.43
-17.26
-23.13
-28.87
-34.32
-39.29
-43.53
-46.79
-48.84
-49.55
-48.94
-47.14
-44.29
-40.56
-36.07
-30.96
-25.35
-19.4
-13.34
-7.44
-1.89
3.14
7.58
11.38
14.54
17.03
18.85
20.04
20.66
20.77
20.37
19.45
18.0
16.15
14.0
11.69
9.38
7.13
4.94
2.74
0.57
-1.53
-3.43
-5.07
-6.47
-7.71
-8.89
-10.13
-11.55
-13.32
-15.67
-18.84
-22.96
-28.01
-33.63
-39.2
-43.87
-46.85
-47.51
-45.68
-41.58
-35.79
-29.08
-22.15
-15.54
-9.44
-3.75
1.76
7.33
13.09
18.89
24.43
29.29
33.14
35.88
37.67
38.78
39.48
39.89
40.01
39.76
39.12
38.15
37.02
35.91
35.03
34.49
34.32
34.5
34.95
35.6
36.41
37.27
38.07
38.63
38.68
37.94
36.26
33.62
30.15
26.07
21.57
16.75
11.68
6.46
1.16
-4.17
-9.57
-15.23
-21.39
-28.08
-34.95
-41.28
-46.06
-48.37
-47.76
-44.34
-38.81
-32.06
-24.93
-17.88
-11.02
-4.31
2.31
8.71
14.66
19.87
24.19
27.56
30.06
31.78
32.83
33.33
33.39
33.2
32.84
32.42
31.99
31.55
31.16
30.86
30.61
30.27
29.65
28.57
26.96
24.91
22.67
20.46
18.37
16.34
14.17
11.69
8.85
5.86
3.06
0.83
-0.61
-1.29
-1.48
-1.62
-2.13
-3.27
-5.02
-7.09
-8.95
-9.9
-9.29
-6.59
-1.65
5.27
13.69
23.02
32.76
42.61
52.38
61.91
71.0
79.42
87.01
93.68
99.48
104.49
108.71
112.05
114.4
115.7
115.89
114.91
112.67
109.04
103.96
97.42
89.49
80.27
69.95
58.78
47.1
35.26
23.57
12.21
1.18
-9.67
-20.47
-31.24
-41.78
-51.69
-60.55
-68.04
-74.12
-79.02
-83.16
-86.99
-90.81
-94.55
-97.76
-99.77
-99.96
-98.01
-94.0
-88.44
-82.01
-75.37
-68.95
-62.95
-57.32
-52.1
-47.45
-43.76
-41.59
-41.47
-43.58
-47.47
-52.01
-55.6
-56.72
-54.51
-48.93
-40.59
-30.17
-17.8
-2.96
15.16
37.07
62.42
90.02
118.2
145.22
169.51
189.57
203.89
211.16
210.68
202.65
188.05
167.95
142.9
112.85
77.65
38.03
-3.8
-44.49
-80.59
-109.88
-132.25
-149.36
-163.51
-176.37
-188.06
-197.05
-200.76
-196.43
-181.85
-156.17
-120.18
-76.57
-29.76
15.01
52.8
80.22
96.07
101.08
96.84
84.46
63.96
34.45
-4.62
-52.03
-104.02
-154.57
-196.92
-225.65
-238.21
-235.49
-221.02
-199.44
-174.97
-150.54
-127.64
-107.16
-89.86
-76.7
-68.42
-64.93
-65.09
-67.07
-69.09
-70.11
-70.0
-69.09
-67.62
-65.47
-62.36
-58.19
-53.27
-48.19
-43.28
-38.36
-32.71
-25.49
-16.35
-5.63
5.66
16.28
25.29
32.3
37.59
41.9
46.07
50.79
56.33
62.41
68.36
73.38
76.85
78.59
78.89
78.23
77.03
75.62
74.11
72.49
70.74
68.79
66.55
64.07
61.38
58.56
55.63
52.46
48.89
44.85
40.46
36.11
32.3
29.35
27.19
25.39
23.37
20.62
17.0
12.69
8.05
3.47
-0.92
-5.19
-9.53
-13.98
-18.24
-21.69
-23.55
-23.25
-20.74
-16.56
-11.61
-6.8
-2.6
0.94
4.09
7.1
9.98
12.4
13.9
14.16
13.15
11.17
8.66
6.05
3.65
1.63
0.11
-0.84
-1.21
-1.02
-0.47
0.21
0.6
0.34
-0.8
-2.79
-5.38
-8.05
-10.23
-11.57
-11.97
-11.72
-11.39
-11.6
-12.71
-14.62
-16.88
-18.84
-19.97
-19.87
-18.38
-15.45
-11.08
-5.2
2.23
11.12
21.3
32.49
44.55
57.36
70.8
84.52
97.89
110.08
120.35
128.34
134.01
137.55
139.0
138.0
133.95
126.23
114.67
99.89
83.13
65.99
49.99
36.18
25.02
16.47
9.99
4.75
-0.26
-6.1
-13.71
-23.62
-35.78
-49.57
-63.86
-77.46
-89.43
-99.27
-106.95
-112.69
-116.62
-118.62
-118.42
-115.73
-110.62
-103.54
-95.24
-86.49
-77.83
-69.38
-60.96
-52.3
-43.25
-34.01
-25.04
-16.95
-10.26
-5.32
-2.22
-0.88
-1.03
-2.27
-4.06
-5.74
-6.68
-6.5
-5.15
-3.07
-0.91
0.66
1.2
0.61
-0.89
-2.96
-5.3
-7.68
-10.05
-12.41
-14.86
-17.51
-20.52
-24.02
-28.0
-32.2
-36.12
-39.09
-40.42
-39.66
-36.7
-31.78
-25.47
-18.38
-11.08
-3.87
3.05
9.66
15.93
21.73
26.95
31.48
35.25
38.27
40.58
42.23
43.32
43.98
44.29
44.39
44.26
43.83
42.96
41.5
39.48
37.08
34.54
32.04
29.67
27.39
25.1
22.73
20.27
17.74
15.13
12.46
9.75
7.03
4.27
1.3
-2.06
-5.99
-10.62
-15.93
-21.69
-27.49
-32.81
-37.15
-40.07
-41.27
-40.63
-38.21
-34.28
-29.24
-23.46
-17.24
-10.76
-4.15
2.44
8.78
14.54
19.46
23.34
26.18
28.21
29.74
31.06
32.3
33.43
34.36
35.09
35.66
36.16
36.64
37.02
37.09
36.61
35.51
33.84
31.75
29.41
26.81
23.92
20.73
17.41
14.21
11.33
8.81
6.41
3.76
0.58
-3.22
-7.44
-11.7
-15.67
-19.23
-22.47
-25.6
-28.8
-32.21
-35.87
-39.71
-43.5
-46.89
-49.27
-50.09
-48.83
-45.26
-39.55
-32.26
-24.09
-15.74
-7.76
-0.41
6.18
12.0
17.03
21.27
24.75
27.53
29.71
31.29
32.29
32.67
32.44
31.71
30.68
29.59
28.64
27.93
27.41
27.01
26.64
26.16
25.44
24.39
22.94
21.16
19.25
17.38
15.64
13.9
11.86
9.18
5.69
1.47
-3.21
-7.87
-12.13
-15.7
-18.54
-20.86
-23.05
-25.63
-28.98
-33.22
-38.1
-42.93
-46.81
-48.85
-48.48
-45.64
-40.68
-34.24
-27.03
-19.62
-12.37
-5.43
1.11
7.17
12.64
17.37
21.21
24.14
26.19
27.43
28.03
28.14
27.97
27.69
27.49
27.48
27.76
28.27
28.86
29.27
29.26
28.71
27.62
26.2
24.59
22.95
21.25
19.41
17.35
15.05
12.61
10.1
7.58
5.06
2.51
-0.09
-2.72
-5.31
-7.85
-10.39
-13.0
-15.69
-18.47
-21.32
-24.2
-27.13
-30.19
-33.56
-37.36
-41.65
-46.24
-50.68
-54.33
-56.4
-56.33
-53.86
-49.19
-42.84
-35.5
-27.79
-20.13
-12.72
-5.64
1.09
7.42
13.21
18.37
22.81
26.49
29.42
31.65
33.26
34.33
34.95
35.21
35.18
34.96
34.6
34.13
33.53
32.78
31.83
30.66
29.29
27.76
26.12
24.4
22.66
20.91
19.22
17.62
16.09
14.52
12.73
10.59
8.0
5.07
2.03
-0.9
-3.58
-5.99
-8.27
-10.58
-13.04
-15.64
-18.19
-20.5
-22.43
-23.96
-25.21
-26.46
-27.99
-30.14
-33.18
-37.25
-42.2
-47.61
-52.72
-56.64
-58.55
-57.99
-54.98
-49.99
-43.72
-36.88
-29.98
-23.22
-16.62
-10.13
-3.71
2.47
8.17
13.07
16.93
19.68
21.52
22.77
23.76
24.77
25.83
26.82
27.55
27.84
27.62
26.93
25.89
24.68
23.49
22.41
21.51
20.77
20.14
19.56
18.99
18.35
17.58
16.57
15.23
13.47
11.33
8.92
6.41
3.94
1.54
-0.89
-3.49
-6.45
-9.82
-13.46
-17.09
-20.39
-23.14
-25.38
-27.42
-29.72
-32.73
-36.65
-41.34
-46.28
-50.7
-53.74
-54.67
-53.04
-48.88
-42.59
-35.02
-27.13
-19.72
-13.26
-7.73
-2.86
1.76
6.32
10.81
14.97
18.55
21.34
23.39
24.91
26.16
27.37
28.71
30.16
31.67
33.09
34.24
34.98
35.22
34.88
33.96
32.46
30.44
28.08
25.61
23.3
21.29
19.59
18.03
16.34
14.2
11.44
8.04
4.17
0.14
-3.69
-6.96
-9.59
-11.63
-13.37
-15.2
-17.45
-20.4
-24.19
-28.77
-33.87
-38.95
-43.2
-45.79
-46.02
-43.68
-39.09
-33.02
-26.3
-19.58
-13.22
-7.19
-1.4
4.3
9.95
15.5
20.74
25.45
29.35
32.18
33.84
34.38
34.03
33.09
31.85
30.43
28.87
27.15
25.23
23.13
20.87
18.45
15.89
13.2
10.41
7.58
4.76
1.96
-0.73
-3.27
-5.63
-7.79
-9.86
-12.04
-14.56
-17.6
-21.19
-25.19
-29.38
-33.59
-37.71
-41.83
-46.13
-50.8
-55.93
-61.43
-66.94
-71.92
-75.66
-77.43
-76.64
-72.96
-66.45
-57.57
-47.08
-35.84
-24.55
-13.71
-3.45
6.28
15.58
24.44
32.63
39.78
45.56
49.81
52.68
54.56
55.91
57.1
58.35
59.75
61.36
63.22
65.44
68.09
71.19
74.68
78.4
82.28
86.28
90.54
95.27
100.69
106.9
113.81
121.13
128.4
135.22
141.24
146.15
149.69
151.54
151.29
148.54
143.07
134.94
124.59
112.69
99.89
86.57
72.75
58.14
42.41
25.53
7.8
-10.12
-27.53
-44.01
-59.65
-74.96
-90.58
-107.01
-124.33
-142.27
-160.31
-177.84
-194.11
-208.23
-219.08
-225.56
-226.85
-222.83
-214.08
-201.57
-186.4
-169.5
-151.76
-134.15
-117.96
-104.45
-94.41
-87.65
-83.01
-79.0
-74.54
-69.58
-65.07
-62.48
-63.14
-67.63
-75.66
-86.0
-96.57
-104.86
-108.54
-106.38
-99.03
-89.12
-80.23
-75.38
-75.58
-79.42
-83.85
-85.96
-84.26
-79.05
-71.8
-63.79
-55.34
-45.84
-34.35
-20.41
-4.53
12.15
28.43
43.43
56.96
69.27
80.76
91.69
101.93
110.99
118.19
123.0
125.21
125.22
123.81
121.9
120.15
118.72
117.35
115.54
112.94
109.44
105.21
100.59
95.83
91.08
86.33
81.47
76.31
70.56
63.98
56.52
48.43
40.23
32.57
25.91
20.31
15.41
10.52
5.01
-1.53
-8.99
-16.89
-24.45
-30.84
-35.43
-37.84
-38.08
-36.39
-33.2
-28.88
-23.76
-18.02
-11.74
-5.04
1.88
8.78
15.4
21.49
26.93
31.6
35.43
38.38
40.42
41.69
42.4
42.85
43.28
43.72
44.04
43.92
43.09
41.39
38.89
35.8
32.37
28.75
25.02
21.24
17.51
13.91
10.62
8.03
6.6
6.64
8.13
10.68
13.74
16.59
18.65
19.48
19.12
17.97
16.57
15.44
14.94
15.42
16.71
18.25
19.1
18.63
16.59
13.1
8.35
2.55
-3.74
-10.4
-17.79
-26.61
-36.23
-45.14
-51.47
-53.67
-50.89
-41.99
-27.19
-8.17
11.96
31.95
51.51
70.82
89.9
108.79
129.35
152.46
177.01
199.2
217.1
229.42
235.01
232.71
222.07
206.27
188.63
171.27
153.61
137.37
123.97
113.25
103.2
76.49
27.05
-37.04
-90.68
-131.73
-163.11
-187.88
-204.85
-211.97
-207.66
-189.86
-160.22
-124.6
-92.38
-68.77
-55.72
-52.66
-57.87
-68.64
-80.02
-88.09
-91.25
-91.11
-87.91
-81.75
-73.0
-62.64
-51.7
-39.89
-27.09
-13.82
-1.7
9.35
19.9
30.26
40.02
48.41
55.15
59.79
61.7
59.84
54.45
46.52
37.42
28.19
19.29
10.73
2.0
-7.26
-17.01
-26.34
-34.09
-39.66
-43.49
-46.7
-50.43
-55.21
-60.53
-65.23
-68.2
-68.95
-67.68
-64.84
-60.45
-54.14
-45.7
-35.99
-27.48
-23.83
-28.39
-42.58
-64.87
-91.17
-116.42
-136.59
-149.83
-156.54
-158.3
-156.61
-152.17
-144.93
-134.75
-122.0
-107.89
-94.02
-81.81
-71.72
-63.04
-54.26
-43.95
-31.59
-18.07
-5.4
4.11
8.9
9.0
6.17
3.34
3.56
8.78
18.94
31.84
43.72
50.58
49.5
39.78
23.04
2.61
-17.73
-34.87
-47.0
-53.6
-54.99
-52.05
-45.95
-38.17
-30.29
-23.77
-19.51
-17.51
-16.95
-16.64
-15.42
-12.58
-8.09
-2.4
3.75
9.55
14.32
17.64
19.48
20.29
21.06
23.0
27.31
34.9
46.24
61.51
80.52
102.76
127.2
152.29
176.06
196.43
211.77
221.28
225.28
224.89
221.65
216.9
211.4
205.29
198.28
189.89
179.72
167.58
153.36
137.01
118.46
97.62
74.38
48.7
20.66
-9.42
-40.65
-71.44
-99.48
-122.26
-137.8
-145.55
-146.74
-144.17
-141.31
-140.97
-144.4
-150.89
-158.28
-163.91
-165.69
-162.85
-155.97
-146.77
-137.3
-129.28
-123.66
-120.44
-118.88
-117.8
-115.96
-112.35
-106.46
-98.18
-87.87
-75.99
-62.99
-49.19
-34.82
-20.19
-5.76
7.75
19.66
29.47
37.09
42.83
47.06
50.02
51.61
51.6
49.91
46.93
43.64
41.27
40.9
42.98
47.12
52.12
56.53
59.09
59.21
57.09
53.58
49.77
46.54
44.3
42.91
41.91
40.85
39.51
37.95
36.35
34.83
33.31
31.6
29.46
26.81
23.74
20.42
16.88
12.97
8.45
3.08
-3.12
-9.85
-16.56
-22.7
-27.8
-31.57
-33.95
-34.97
-34.76
-33.4
-31.02
-27.64
-23.33
-18.19
-12.46
-6.53
-0.86
4.12
8.25
11.59
14.37
16.83
19.05
20.94
22.36
23.29
23.89
24.47
25.3
26.41
27.52
28.19
28.09
27.1
25.46
23.5
21.54
19.7
17.86
15.88
13.66
11.33
9.01
6.82
4.67
2.4
-0.22
-3.31
-6.76
-10.4
-14.03
-17.58
-21.08
-24.6
-28.08
-31.26
-33.79
-35.27
-35.43
-34.17
-31.58
-27.8
-23.05
-17.57
-11.63
-5.6
0.11
5.16
9.38
12.82
15.67
18.05
19.92
21.17
21.67
21.42
20.68
19.8
19.15
18.97
19.26
19.84
20.48
21.01
21.31
21.41
21.32
21.02
20.41
19.35
17.71
15.41
12.56
9.31
5.91
2.41
-1.16
-4.76
-8.24
-11.31
-13.58
-14.79
-14.95
-14.29
-13.22
-12.02
-10.7
-9.12
-7.06
-4.5
-1.63
1.13
3.32
4.59
4.8
4.17
3.17
2.44
2.61
3.92
6.21
8.85
11.05
12.19
12.11
11.01
9.39
7.59
5.71
3.63
1.23
-1.46
-4.23
-6.71
-8.61
-9.81
-10.38
-10.6
-10.84
-11.45
-12.69
-14.64
-17.1
-19.74
-22.21
-24.32
-26.1
-27.69
-29.14
-30.27
-30.6
-29.64
-27.06
-22.93
-17.61
-11.6
-5.37
0.86
7.02
13.08
18.92
24.26
28.71
31.96
33.94
34.84
34.98
34.69
34.18
33.48
32.48
31.1
29.33
27.25
25.0
22.69
20.37
18.12
16.04
14.24
12.87
11.94
11.35
10.86
10.17
8.97
7.11
4.59
1.57
-1.71
-4.97
-7.97
-10.5
-12.43
-13.78
-14.62
-15.11
-15.45
-15.87
-16.57
-17.73
-19.43
-21.77
-24.72
-28.22
-32.02
-35.67
-38.56
-40.03
-39.62
-37.18
-32.94
-27.4
-21.14
-14.61
-8.02
-1.45
5.07
11.45
17.42
22.75
27.22
30.76
33.34
35.03
35.91
36.11
35.76
35.03
34.05
32.95
31.84
30.8
29.97
29.46
29.35
29.62
30.11
30.59
30.83
30.71
30.2
29.36
28.21
26.73
24.84
22.45
19.54
16.18
12.54
8.84
5.27
1.98
-0.98
-3.63
-6.07
-8.47
-11.04
-13.91
-17.08
-20.39
-23.56
-26.3
-28.51
-30.28
-31.86
-33.56
-35.63
-38.14
-40.98
-43.85
-46.28
-47.76
-47.83
-46.25
-43.11
-38.81
-33.91
-28.89
-23.99
-19.24
-14.45
-9.54
-4.53
0.34
4.77
8.55
11.58
13.92
15.69
17.06
18.13
18.93
19.49
19.76
19.77
19.6
19.32
19.02
18.81
18.67
18.54
18.29
17.78
16.87
15.6
14.04
12.27
10.36
8.39
6.34
4.28
2.24
0.26
-1.63
-3.51
-5.52
-7.83
-10.48
-13.4
-16.41
-19.37
-22.28
-25.2
-28.29
-31.55
-34.74
-37.45
-39.15
-39.44
-38.18
-35.51
-31.7
-27.1
-21.92
-16.3
-10.47
-4.73
0.55
5.02
8.49
10.97
12.61
13.62
14.25
14.64
14.97
15.35
15.85
16.44
16.98
17.33
17.43
17.37
17.31
17.43
17.73
18.06
18.11
17.66
16.57
14.93
12.87
10.54
8.01
5.32
2.48
-0.44
-3.33
-6.12
-8.82
-11.52
-14.3
-17.15
-19.97
-22.65
-25.11
-27.45
-29.88
-32.61
-35.66
-38.74
-41.31
-42.82
-42.82
-41.19
-38.04
-33.68
-28.41
-22.48
-16.09
-9.49
-3.05
2.85
7.93
12.11
15.53
18.45
21.07
23.39
25.29
26.56
27.14
27.1
26.7
26.14
25.58
25.05
24.5
23.93
23.34
22.8
22.23
21.56
20.64
19.39
17.89
16.28
14.76
13.47
12.39
11.36
10.19
8.77
7.12
5.36
3.6
1.87
0.1
-1.87
-4.13
-6.69
-9.51
-12.47
-15.39
-18.16
-20.64
-22.77
-24.57
-26.21
-28.02
-30.34
-33.43
-37.29
-41.61
-45.86
-49.41
-51.71
-52.39
-51.29
-48.46
-44.12
-38.59
-32.25
-25.49
-18.59
-11.8
-5.2
1.15
7.2
12.79
17.67
21.62
24.54
26.51
27.69
28.33
28.58
28.49
28.1
27.46
26.77
26.28
26.2
26.58
27.25
27.93
28.4
28.57
28.45
28.16
27.73
27.08
26.13
24.83
23.21
21.41
19.58
17.77
15.98
14.14
12.2
10.14
7.99
5.75
3.42
1.01
-1.5
-4.04
-6.55
-8.95
-11.16
-13.15
-14.96
-16.64
-18.3
-19.99
-21.79
-23.71
-25.78
-28.02
-30.5
-33.31
-36.47
-39.82
-43.06
-45.74
-47.37
-47.62
-46.27
-43.37
-39.17
-33.96
-28.07
-21.81
-15.44
-9.15
-3.11
2.56
7.76
12.41
16.51
20.08
23.17
25.85
28.17
30.17
31.85
33.17
34.02
34.38
34.25
33.7
32.81
31.61
30.09
28.27
26.22
23.98
21.69
19.36
17.02
14.74
12.59
10.72
9.23
8.2
7.5
7.01
6.56
6.04
5.47
4.84
4.18
3.43
2.54
1.37
-0.2
-2.3
-5.03
-8.37
-12.19
-16.25
-20.18
-23.64
-26.55
-28.96
-31.14
-33.45
-36.09
-39.11
-42.22
-44.99
-46.87
-47.46
-46.52
-44.04
-40.21
-35.29
-29.63
-23.56
-17.39
-11.39
-5.81
-0.74
3.77
7.73
11.27
14.4
17.17
19.58
21.63
23.35
24.8
25.98
26.81
27.21
27.07
26.44
25.47
24.4
23.42
22.63
21.9
21.09
20.06
18.77
17.32
15.82
14.32
12.87
11.42
9.9
8.31
6.72
5.15
3.64
2.16
0.65
-0.94
-2.65
-4.5
-6.52
-8.64
-10.82
-13.06
-15.38
-17.84
-20.55
-23.57
-26.9
-30.47
-34.12
-37.62
-40.66
-42.91
-44.06
-43.8
-41.96
-38.53
-33.67
-27.73
-21.17
-14.38
-7.66
-1.23
4.8
10.32
15.17
19.14
22.14
24.17
25.44
26.21
26.7
27.01
27.08
26.77
26.02
24.93
23.74
22.69
21.94
21.43
20.98
20.46
19.79
19.06
18.42
17.89
17.39
16.69
15.56
13.83
11.51
8.66
5.42
1.88
-1.87
-5.77
-9.75
-13.74
-17.72
-21.65
-25.5
-29.21
-32.73
-35.93
-38.63
-40.54
-41.34
-40.8
-38.82
-35.53
-31.19
-26.12
-20.57
-14.6
-8.32
-1.79
4.76
10.93
16.28
20.43
23.21
24.66
25.08
24.86
24.42
24.02
23.74
23.52
23.28
22.94
22.56
22.16
21.73
21.24
20.66
19.88
18.87
17.64
16.23
14.73
13.17
11.57
9.84
7.89
5.6
3.0
0.18
-2.62
-5.2
-7.45
-9.46
-11.44
-13.62
-16.2
-19.26
-22.86
-26.94
-31.31
-35.55
-39.12
-41.38
-41.82
-40.22
-36.63
-31.45
-25.18
-18.28
-11.2
-4.22
2.38
8.4
13.66
18.09
21.66
24.45
26.62
28.35
29.79
30.97
31.83
32.25
32.1
31.41
30.34
29.22
28.35
27.97
28.14
28.72
29.44
30.02
30.28
30.16
29.75
29.1
28.32
27.39
26.3
25.03
23.58
22.01
20.39
18.72
16.93
14.94
12.7
10.24
7.71
5.31
3.16
1.27
-0.43
-2.14
-4.09
-6.46
-9.36
-12.75
-16.43
-20.12
-23.59
-26.66
-29.4
-31.96
-34.59
-37.46
-40.63
-43.99
-47.3
-50.21
-52.27
-53.06
-52.22
-49.61
-45.31
-39.65
-33.06
-25.99
-18.79
-11.67
-4.73
1.89
8.01
13.44
18.02
21.76
24.78
27.29
29.44
31.24
32.61
33.4
33.54
33.11
32.31
31.33
30.35
29.46
28.74
28.2
27.78
27.35
26.74
25.85
24.62
23.19
21.73
20.41
19.27
18.25
17.31
16.44
15.79
15.42
15.3
15.22
14.85
13.91
12.22
9.9
7.16
4.28
1.53
-0.95
-3.15
-5.16
-7.09
-9.13
-11.39
-13.91
-16.64
-19.42
-22.12
-24.64
-27.06
-29.49
-32.14
-35.11
-38.41
-41.85
-45.09
-47.66
-49.06
-48.9
-47.02
-43.54
-38.81
-33.24
-27.23
-21.04
-14.86
-8.81
-3.09
2.17
6.78
10.72
14.05
16.92
19.51
21.92
24.2
26.25
27.94
29.13
29.71
29.65
28.98
27.81
26.41
25.03
23.96
23.36
23.24
23.41
23.59
23.5
22.91
21.81
20.28
18.54
16.77
15.15
13.68
12.32
10.89
9.24
7.22
4.9
2.41
-0.05
-2.36
-4.55
-6.7
-8.92
-11.22
-13.53
-15.74
-17.8
-19.76
-21.73
-23.82
-26.13
-28.66
-31.39
-34.27
-37.24
-40.16
-42.67
-44.34
-44.66
-43.32
-40.26
-35.72
-30.12
-23.88
-17.41
-10.99
-4.9
0.65
5.45
9.42
12.57
15.09
17.15
18.96
20.6
22.05
23.2
23.94
24.16
23.86
23.1
22.03
20.82
19.62
18.46
17.34
16.19
14.9
13.38
11.63
9.7
7.66
5.56
3.43
1.3
-0.74
-2.59
-4.16
-5.42
-6.46
-7.44
-8.59
-10.04
-11.84
-13.9
-16.14
-18.47
-20.82
-23.18
-25.43
-27.51
-29.35
-30.97
-32.45
-33.92
-35.42
-36.84
-37.88
-38.18
-37.41
-35.4
-32.21
-28.0
-23.03
-17.56
-11.82
-5.96
-0.11
5.6
10.93
15.59
19.36
22.08
23.82
24.79
25.35
25.78
26.22
26.57
26.6
26.16
25.29
24.26
23.42
23.07
23.21
23.64
23.98
23.91
23.33
22.32
21.1
19.86
18.65
17.4
16.03
14.41
12.55
10.43
8.08
5.56
2.92
0.24
-2.46
-5.15
-7.88
-10.7
-13.6
-16.53
-19.35
-21.96
-24.25
-26.26
-28.07
-29.81
-31.59
-33.4
-35.2
-36.84
-38.2
-39.15
-39.51
-39.09
-37.65
-34.99
-31.05
-25.95
-19.94
-13.43
-6.81
-0.45
5.34
10.38
14.52
17.74
20.1
21.78
22.98
23.84
24.42
24.68
24.57
24.12
23.46
22.82
22.45
22.54
23.18
24.32
25.78
27.24
28.37
28.84
28.51
27.39
25.68
23.64
21.48
19.32
17.18
15.05
12.93
10.85
8.85
6.97
5.25
3.61
2.0
0.28
-1.63
-3.78
-6.08
-8.32
-10.34
-12.03
-13.48
-14.93
-16.65
-18.86
-21.6
-24.78
-28.17
-31.57
-34.8
-37.79
-40.4
-42.51
-43.9
-44.25
-43.29
-40.79
-36.73
-31.34
-25.07
-18.48
-12.09
-6.23
-1.09
3.32
6.96
9.78
11.79
13.09
13.88
14.51
15.33
16.55
18.16
19.96
21.66
22.98
23.79
24.04
23.8
23.19
22.29
21.13
19.76
18.25
16.69
15.19
13.86
12.66
11.51
10.25
8.71
6.76
4.43
1.81
-0.97
-3.78
-6.57
-9.31
-11.99
-14.6
-17.09
-19.42
-21.63
-23.9
-26.39
-29.25
-32.34
-35.33
-37.64
-38.69
-38.09
-35.74
-31.86
-26.79
-20.98
-14.72
-8.26
-1.79
4.55
10.51
15.9
20.48
24.17
26.88
28.65
29.51
29.55
28.94
27.84
26.48
25.04
23.68
22.48
21.45
20.58
19.87
19.41
19.19
19.23
19.37
19.42
19.09
18.22
16.77
14.84
12.74
10.72
8.95
7.43
6.08
4.73
3.31
1.82
0.24
-1.42
-3.21
-5.25
-7.58
-10.17
-12.87
-15.52
-18.0
-20.36
-22.69
-25.18
-27.99
-31.18
-34.71
-38.38
-41.87
-44.71
-46.46
-46.75
-45.42
-42.56
-38.45
-33.5
-28.06
-22.38
-16.6
-10.77
-4.96
0.64
5.81
10.34
14.02
16.87
19.07
20.85
22.5
24.2
25.94
27.59
29.04
30.18
31.02
31.63
32.09
32.43
32.62
32.59
32.24
31.52
30.42
29.01
27.42
25.82
24.35
23.06
21.87
20.61
19.16
17.52
15.81
14.16
12.65
11.2
9.69
8.03
6.26
4.46
2.73
1.09
-0.61
-2.54
-4.8
-7.41
-10.21
-12.96
-15.42
-17.44
-18.99
-20.26
-21.56
-23.24
-25.6
-28.76
-32.52
-36.5
-40.12
-42.82
-44.16
-43.94
-42.14
-38.94
-34.57
-29.27
-23.3
-16.84
-10.12
-3.35
3.21
9.31
14.72
19.38
23.27
26.48
29.16
31.39
33.21
34.6
35.47
35.79
35.67
35.25
34.7
34.14
33.64
33.16
32.66
32.07
31.31
30.35
29.18
27.8
26.26
24.67
23.14
21.73
20.38
19.01
17.46
15.68
13.63
11.4
9.06
6.68
4.36
2.12
0.07
-1.69
-3.11
-4.27
-5.36
-6.67
-8.4
-10.63
-13.25
-16.07
-18.85
-21.48
-23.9
-26.18
-28.46
-30.87
-33.5
-36.38
-39.39
-42.22
-44.35
-45.18
-44.28
-41.55
-37.29
-32.01
-26.26
-20.43
-14.73
-9.21
-3.93
1.07
5.66
9.76
13.33
16.39
19.0
21.16
22.93
24.3
25.3
25.91
26.09
25.78
24.97
23.8
22.43
21.11
20.0
19.16
18.48
17.79
16.94
15.82
14.44
12.89
11.26
9.64
8.05
6.48
4.9
3.25
1.55
-0.19
-1.98
-3.81
-5.78
-7.91
-10.2
-12.57
-14.91
-17.19
-19.47
-21.92
-24.76
-28.09
-31.83
-35.65
-39.07
-41.51
-42.56
-42.03
-39.96
-36.6
-32.29
-27.36
-22.1
-16.69
-11.24
-5.86
-0.62
4.43
9.24
13.74
17.83
21.39
24.23
26.19
27.14
27.16
26.46
25.37
24.26
23.38
22.83
22.53
22.23
21.73
20.95
19.95
18.89
17.89
16.96
16.0
14.89
13.57
12.08
10.52
8.94
7.39
5.87
4.37
2.89
1.44
0.01
-1.45
-3.03
-4.84
-6.95
-9.33
-11.95
-14.73
-17.63
-20.63
-23.65
-26.56
-29.24
-31.55
-33.43
-34.94
-36.19
-37.3
-38.27
-38.94
-38.98
-38.07
-35.93
-32.5
-27.99
-22.67
-16.94
-11.11
-5.39
0.1
5.32
10.22
14.61
18.19
20.72
22.06
22.37
22.01
21.45
20.99
20.68
20.33
19.74
18.89
17.96
17.27
17.01
17.19
17.61
18.08
18.47
18.77
19.04
19.27
19.36
19.19
18.71
17.93
16.95
15.83
14.58
13.23
11.83
10.47
9.21
8.04
6.81
5.32
3.42
1.09
-1.53
-4.14
-6.45
-8.33
-9.8
-11.1
-12.48
-14.15
-16.08
-18.1
-19.97
-21.47
-22.64
-23.7
-24.98
-26.66
-28.76
-31.01
-33.1
-34.71
-35.67
-35.89
-35.31
-33.87
-31.44
-27.95
-23.45
-18.2
-12.59
-7.05
-1.92
2.67
6.71
10.3
13.5
16.27
18.54
20.22
21.28
21.82
22.04
22.13
22.19
22.2
22.06
21.64
20.92
20.02
19.16
18.52
18.16
17.97
17.7
17.09
16.03
14.59
12.95
11.29
9.76
8.37
7.07
5.76
4.45
3.14
1.86
0.62
-0.73
-2.32
-4.33
-6.8
-9.66
-12.64
-15.42
-17.72
-19.42
-20.63
-21.6
-22.65
-24.0
-25.7
-27.58
-29.27
-30.41
-30.69
-29.99
-28.4
-26.12
-23.37
-20.29
-16.95
-13.36
-9.55
-5.6
-1.63
2.19
5.69
8.62
10.83
12.22
12.9
13.12
13.26
13.62
14.3
15.25
16.2
16.95
17.34
17.47
17.44
17.36
17.23
16.9
16.17
14.81
12.72
9.87
6.48
2.9
-0.51
-3.4
-5.73
-7.63
-9.41
-11.35
-13.59
-16.09
-18.62
-20.95
-22.86
-24.33
-25.39
-26.14
-26.72
-27.3
-28.04
-28.99
-29.98
-30.44
-29.65
-26.83
-21.61
-14.27
-5.76
2.6
9.57
14.52
17.69
19.96
22.57
26.44
31.84
38.34
45.02
50.89
55.1
57.12
56.67
53.6
48.05
40.43
31.57
22.59
14.6
8.31
3.9
0.97
-1.17
-3.13
-5.29
-7.68
-10.06
-12.16
-13.89
-15.42
-17.11
-19.34
-22.26
-25.64
-28.96
-31.66
-33.44
-34.44
-35.09
-35.83
-36.79
-37.68
-37.92
-37.05
-34.98
-32.17
-29.44
-27.63
-27.26
-28.3
-30.21
-32.03
-32.74
-31.54
-28.03
-22.3
-14.83
-6.36
2.33
10.49
17.69
23.75
28.72
32.83
36.25
39.0
41.0
42.09
42.16
41.3
39.73
37.78
35.73
33.76
31.89
30.16
28.55
27.04
25.5
23.79
21.69
19.02
15.72
11.83
7.47
2.87
-1.72
-5.96
-9.52
-12.11
-13.62
-14.14
-14.01
-13.77
-13.91
-14.85
-16.71
-19.36
-22.52
-25.78
-28.66
-30.7
-31.53
-30.9
-28.8
-25.46
-21.28
-16.64
-11.74
-6.52
-0.81
5.45
11.93
17.86
22.22
24.13
23.23
19.85
14.89
9.45
4.53
0.8
-1.5
-2.37
-1.91
-0.25
2.48
6.06
10.01
13.71
16.47
17.73
17.32
15.57
13.16
10.86
9.17
8.14
7.41
6.53
5.15
3.24
1.01
-1.21
-3.25
-5.18
-7.27
-9.88
-13.19
-17.04
-20.94
-24.15
-25.84
-25.41
-22.64
-17.83
-11.6
-4.65
2.52
9.76
17.07
24.46
31.72
38.42
44.04
48.13
50.45
50.97
49.75
46.76
42.03
35.63
28.01
19.9
12.25
5.89
1.31
-1.48
-2.84
-3.37
-3.67
-4.14
-4.9
-5.92
-6.97
-7.81
-8.24
-8.06
-7.16
-5.56
-3.44
-1.14
0.8
1.8
1.32
-0.92
-4.82
-9.93
-15.57
-21.16
-26.38
-31.24
-35.89
-40.42
-44.66
-48.08
-50.1
-50.21
-48.27
-44.53
-39.48
-33.63
-27.4
-21.09
-14.89
-8.94
-3.36
1.8
6.52
10.78
14.58
17.87
20.6
22.72
24.22
25.22
25.88
26.34
26.67
26.9
26.89
26.53
25.67
24.27
22.46
20.48
18.6
17.04
15.86
14.95
14.11
13.18
12.12
11.0
9.99
9.23
8.75
8.46
8.16
7.65
6.81
5.66
4.32
2.9
1.45
-0.1
-2.01
-4.45
-7.57
-11.34
-15.63
-20.16
-24.65
-28.76
-32.14
-34.41
-35.23
-34.43
-32.0
-28.2
-23.37
-17.89
-12.09
-6.17
-0.24
5.61
11.21
16.32
20.63
23.93
26.18
27.57
28.47
29.29
30.25
31.3
32.1
32.24
31.43
29.64
27.07
24.12
21.13
18.36
15.89
13.7
11.81
10.2
8.88
7.73
6.65
5.54
4.36
3.08
1.69
0.1
-1.85
-4.26
-7.18
-10.35
-13.44
-16.12
-18.2
-19.84
-21.3
-22.92
-24.85
-27.0
-29.14
-30.98
-32.25
-32.71
-32.18
-30.46
-27.44
-23.19
-17.98
-12.26
-6.57
-1.26
3.49
7.69
11.36
14.56
17.22
19.26
20.66
21.44
21.73
21.66
21.36
20.84
20.07
19.0
17.61
15.95
14.17
12.46
10.94
9.72
8.76
8.01
7.35
6.63
5.65
4.23
2.27
-0.26
-3.19
-6.29
-9.3
-12.06
-14.54
-16.76
-18.81
-20.8
-22.82
-25.0
-27.34
-29.78
-32.06
-33.81
-34.6
-34.12
-32.25
-29.1
-24.92
-20.05
-14.87
-9.61
-4.54
0.22
4.54
8.32
11.51
14.1
16.09
17.53
18.47
18.98
19.13
19.0
18.67
18.2
17.63
17.0
16.32
15.69
15.19
14.9
14.85
14.94
14.98
14.75
14.05
12.9
11.41
9.78
8.23
6.83
5.51
4.17
2.63
0.76
-1.44
-3.89
-6.42
-8.81
-10.89
-12.59
-13.93
-15.14
-16.49
-18.27
-20.59
-23.41
-26.52
-29.59
-32.3
-34.32
-35.41
-35.43
-34.28
-32.0
-28.69
-24.49
-19.65
-14.49
-9.36
-4.56
-0.34
3.25
6.18
8.52
10.38
11.78
12.82
13.57
14.22
14.99
16.02
17.24
18.48
19.49
20.09
20.27
20.14
19.83
19.43
18.92
18.23
17.35
16.37
15.45
14.76
14.33
14.05
13.69
13.07
12.11
10.86
9.43
7.91
6.34
4.68
2.87
0.9
-1.22
-3.41
-5.64
-7.92
-10.27
-12.64
-14.98
-17.21
-19.3
-21.31
-23.38
-25.64
-28.07
-30.57
-32.91
-34.88
-36.31
-37.05
-37.03
-36.12
-34.21
-31.2
-27.14
-22.25
-16.88
-11.45
-6.31
-1.69
2.23
5.39
7.76
9.41
10.5
11.24
11.9
12.73
13.88
15.38
17.14
18.95
20.66
22.13
23.3
24.14
24.7
24.94
24.86
24.38
23.46
22.14
20.47
18.55
16.43
14.11
11.62
9.01
6.42
4.05
2.06
0.53
-0.58
-1.44
-2.25
-3.21
-4.47
-6.13
-8.28
-10.94
-14.06
-17.44
-20.85
-24.15
-27.27
-30.22
-33.0
-35.53
-37.54
-38.68
-38.62
-37.07
-34.03
-29.62
-24.2
-18.23
-12.17
-6.44
-1.31
3.09
6.77
9.78
12.21
14.14
15.67
16.93
17.99
18.93
19.73
20.3
20.52
20.31
19.68
18.73
17.66
16.66
15.85
15.26
14.77
14.15
13.18
11.67
9.58
7.03
4.24
1.44
-1.29
-3.91
-6.48
-8.99
-11.41
-13.71
-15.87
-17.96
-20.09
-22.38
-24.89
-27.57
-30.32
-32.99
-35.38
-37.27
-38.38
-38.41
-37.15
-34.58
-30.82
-26.16
-20.88
-15.32
-9.71
-4.23
0.93
5.69
10.02
13.9
17.34
20.37
22.94
24.99
26.44
27.25
27.5
27.34
26.93
26.47
26.09
25.8
25.56
25.2
24.51
23.42
21.95
20.21
18.34
16.44
14.55
12.69
10.88
9.13
7.54
6.07
4.61
3.0
1.0
-1.51
-4.51
-7.9
-11.55
-15.32
-19.22
-23.2
-27.29
-31.41
-35.49
-39.34
-42.71
-45.32
-46.86
-47.12
-45.92
-43.21
-39.08
-33.75
-27.5
-20.72
-13.75
-6.9
-0.41
5.58
10.95
15.6
19.41
22.33
24.42
25.92
27.11
28.28
29.56
30.86
31.98
32.68
32.87
32.6
32.04
31.41
30.81
30.31
29.85
29.37
28.79
27.99
26.92
25.52
23.79
21.8
19.63
17.37
15.08
12.79
10.54
8.35
6.26
4.29
2.42
0.58
-1.33
-3.37
-5.52
-7.7
-9.75
-11.53
-13.02
-14.36
-15.81
-17.66
-20.07
-23.07
-26.57
-30.46
-34.64
-38.98
-43.25
-47.03
-49.74
-50.81
-49.87
-46.88
-42.15
-36.2
-29.62
-22.81
-15.99
-9.19
-2.51
3.9
9.76
14.84
19.02
22.4
25.2
27.66
29.84
31.65
32.86
33.28
32.93
32.05
31.03
30.22
29.8
29.69
29.7
29.57
29.14
28.32
27.19
25.85
24.34
22.69
20.84
18.81
16.64
14.43
12.26
10.12
7.92
5.49
2.72
-0.42
-3.84
-7.31
-10.6
-13.47
-15.77
-17.49
-18.75
-19.79
-20.91
-22.42
-24.46
-27.01
-29.85
-32.58
-34.74
-35.92
-35.77
-34.12
-31.04
-26.78
-21.74
-16.33
-10.86
-5.47
-0.19
4.94
9.79
14.09
17.61
20.17
21.82
22.82
23.51
24.17
24.88
25.5
25.77
25.52
24.73
23.6
22.4
21.35
20.46
19.61
18.61
17.32
15.77
14.05
12.34
10.77
9.35
8.02
6.7
5.32
3.86
2.3
0.63
-1.18
-3.14
-5.22
-7.41
-9.69
-12.07
-14.68
-17.68
-21.27
-25.5
-30.22
-35.04
-39.36
-42.58
-44.19
-43.92
-41.75
-37.87
-32.68
-26.62
-20.18
-13.69
-7.36
-1.28
4.53
10.0
15.01
19.35
22.85
25.43
27.16
28.26
29.04
29.71
30.38
31.04
31.47
31.51
31.07
30.22
29.11
27.98
26.92
25.89
24.88
23.77
22.57
21.37
20.24
19.12
17.92
16.41
14.49
12.25
9.85
7.56
5.46
3.45
1.22
-1.42
-4.56
-8.0
-11.42
-14.63
-17.55
-20.28
-22.96
-25.66
-28.39
-31.14
-33.99
-37.0
-40.13
-43.09
-45.31
-46.11
-44.98
-41.85
-37.01
-31.05
-24.53
-17.96
-11.55
-5.45
0.24
5.51
10.34
14.74
18.69
22.11
24.8
26.65
27.65
27.99
27.96
27.9
28.0
28.25
28.53
28.71
28.8
28.9
29.16
29.66
30.37
31.09
31.58
31.66
31.28
30.5
29.4
27.99
26.2
23.95
21.21
18.12
14.96
12.03
9.54
7.53
5.85
4.27
2.56
0.55
-1.82
-4.51
-7.44
-10.4
-13.23
-15.81
-18.12
-20.3
-22.54
-25.13
-28.19
-31.74
-35.63
-39.51
-42.99
-45.57
-46.84
-46.44
-44.27
-40.39
-35.14
-28.95
-22.3
-15.61
-9.12
-3.02
2.61
7.71
12.22
16.06
19.22
21.71
23.56
24.84
25.59
25.85
25.69
25.21
24.56
23.98
23.71
23.83
24.3
24.9
25.3
25.25
24.63
23.53
22.1
20.54
18.88
17.12
15.19
13.09
10.88
8.68
6.54
4.46
2.44
0.4
-1.73
-3.98
-6.33
-8.77
-11.25
-13.71
-16.15
-18.49
-20.71
-22.82
-24.84
-26.83
-28.82
-30.83
-32.84
-34.77
-36.34
-37.21
-36.9
-35.05
-31.58
-26.68
-20.79
-14.45
-8.13
-2.12
3.39
8.31
12.54
15.94
18.44
20.08
21.01
21.45
21.65
21.8
21.99
22.26
22.58
22.89
23.09
23.14
22.99
22.69
22.25
21.75
21.16
20.47
19.66
18.75
17.81
16.87
15.91
14.83
13.54
11.95
10.06
7.95
5.72
3.51
1.41
-0.5
-2.24
-3.83
-5.33
-6.84
-8.46
-10.26
-12.28
-14.49
-16.82
-19.16
-21.41
-23.54
-25.6
-27.7
-29.95
-32.35
-34.75
-36.84
-38.25
-38.64
-37.86
-35.9
-32.87
-28.96
-24.37
-19.27
-13.91
-8.48
-3.26
1.54
5.75
9.32
12.26
14.61
16.43
17.76
18.66
19.2
19.48
19.59
19.65
19.69
19.75
19.85
19.97
20.16
20.41
20.73
21.07
21.31
21.3
20.93
20.16
19.1
17.86
16.58
15.35
14.17
13.0
11.88
10.83
9.87
8.96
7.98
6.76
5.2
3.3
1.14
-1.16
-3.53
-5.99
-8.57
-11.22
-13.87
-16.41
-18.74
-20.9
-22.99
-25.17
-27.57
-30.24
-33.15
-36.19
-39.11
-41.56
-43.12
-43.38
-42.1
-39.29
-35.18
-30.14
-24.53
-18.62
-12.61
-6.74
-1.24
3.61
7.65
10.86
13.35
15.37
17.11
18.71
20.13
21.27
22.05
22.45
22.53
22.42
22.33
22.48
22.98
23.76
24.62
25.25
25.38
24.89
23.76
22.13
20.15
17.93
15.5
12.9
10.23
7.67
5.4
3.55
2.13
0.96
-0.16
-1.4
-2.89
-4.54
-6.29
-8.09
-9.97
-12.05
-14.5
-17.38
-20.65
-24.23
-28.01
-31.92
-35.83
-39.52
-42.68
-44.93
-45.98
-45.68
-44.1
-41.4
-37.8
-33.43
-28.42
-22.9
-17.13
-11.42
-6.11
-1.47
2.46
5.79
8.78
11.66
14.56
17.44
20.1
22.27
23.62
23.97
23.33
21.91
20.08
18.21
16.56
15.25
14.23
13.36
12.5
11.58
10.55
9.38
8.04
6.48
4.65
2.6
0.37
-1.91
-4.19
-6.41
-8.58
-10.72
-12.82
-14.91
-16.96
-19.06
-21.24
-23.59
-26.08
-28.58
-30.81
-32.36
-32.81
-31.85
-29.42
-25.66
-20.96
-15.76
-10.49
-5.41
-0.65
3.72
7.69
11.24
14.31
16.84
18.75
20.06
20.84
21.2
21.25
21.08
20.69
20.09
19.32
18.49
17.79
17.32
17.12
16.99
16.7
16.01
14.83
13.27
11.58
10.05
8.84
7.98
7.35
6.71
5.77
4.23
1.92
-1.24
-5.16
-9.71
-14.76
-20.17
-25.74
-31.14
-35.78
-38.94
-39.95
-38.5
-34.85
-29.74
-24.23
-19.2
-15.19
-12.2
-9.96
-8.01
-6.03
-3.83
-1.38
1.2
3.68
5.7
6.8
6.46
4.3
0.35
-4.8
-10.0
-13.8
-14.73
-11.89
-5.26
4.12
14.44
23.73
30.49
34.14
34.99
34.03
32.31
30.65
29.41
28.58
27.98
27.5
27.12
26.75
26.28
25.4
23.77
21.08
17.22
12.4
7.07
1.85
-2.79
-6.61
-9.78
-12.67
-15.68
-18.98
-22.52
-26.04
-29.28
-32.0
-34.04
-35.21
-35.33
-34.15
-31.56
-27.6
-22.59
-16.97
-11.19
-5.58
-0.25
4.78
9.61
14.25
18.64
22.61
25.95
28.4
29.8
30.08
29.35
27.86
25.96
23.97
22.23
21.01
20.48
20.74
21.72
23.1
24.36
24.92
24.26
22.2
18.97
15.13
11.23
7.7
4.64
1.87
-0.87
-3.74
-6.72
-9.63
-12.27
-14.58
-16.66
-18.67
-20.79
-23.11
-25.63
-28.29
-31.01
-33.74
-36.3
-38.38
-39.56
-39.37
-37.51
-34.06
-29.39
-24.18
-19.07
-14.51
-10.5
-6.82
-3.17
0.65
4.52
8.18
11.32
13.84
15.81
17.43
18.87
20.1
20.98
21.25
20.81
19.78
18.49
17.39
16.85
16.99
17.65
18.48
19.07
19.18
18.88
18.44
18.14
18.07
17.99
17.38
15.65
12.42
7.65
1.72
-4.74
-11.1
-16.89
-21.85
-26.01
-29.4
-32.13
-34.31
-36.11
-37.71
-39.27
-40.76
-41.91
-42.25
-41.32
-38.88
-35.04
-30.2
-24.83
-19.34
-13.86
-8.35
-2.67
3.19
9.07
14.69
19.76
24.05
27.47
29.99
31.7
32.76
33.36
33.68
33.79
33.72
33.39
32.73
31.8
30.77
29.9
29.39
29.24
29.23
29.01
28.27
26.89
24.94
22.62
20.11
17.5
14.76
11.87
8.83
5.81
2.99
0.56
-1.41
-3.04
-4.6
-6.38
-8.5
-10.94
-13.45
-15.75
-17.68
-19.25
-20.78
-22.58
-24.98
-28.03
-31.57
-35.24
-38.64
-41.43
-43.35
-44.27
-44.11
-42.88
-40.57
-37.24
-32.94
-27.75
-21.87
-15.53
-9.07
-2.83
2.83
7.74
11.84
15.28
18.3
21.09
23.72
26.1
28.03
29.29
29.79
29.59
28.85
27.78
26.53
25.21
23.89
22.7
21.67
20.81
20.04
19.16
17.99
16.41
14.52
12.49
10.59
9.03
7.91
7.18
6.68
6.2
5.51
4.49
3.13
1.55
-0.08
-1.56
-2.76
-3.64
-4.29
-4.88
-5.64
-6.82
-8.52
-10.72
-13.21
-15.72
-18.08
-20.22
-22.25
-24.36
-26.67
-29.18
-31.76
-34.15
-36.02
-36.97
-36.65
-34.76
-31.26
-26.33
-20.44
-14.17
-8.09
-2.53
2.37
6.6
10.17
13.12
15.46
17.26
18.66
19.8
20.78
21.59
22.11
22.19
21.78
20.99
20.01
19.11
18.46
18.09
17.92
17.78
17.53
17.09
16.42
15.53
14.4
13.05
11.47
9.72
7.9
6.11
4.4
2.78
1.27
-0.13
-1.43
-2.66
-3.92
-5.36
-7.12
-9.26
-11.71
-14.25
-16.62
-18.64
-20.26
-21.57
-22.78
-24.08
-25.59
-27.35
-29.32
-31.36
-33.28
-34.84
-35.77
-35.83
-34.9
-32.91
-29.9
-25.96
-21.23
-15.84
-10.01
-4.07
1.56
6.45
10.29
13.06
15.01
16.48
17.77
18.97
19.97
20.62
20.85
20.75
20.46
20.14
19.76
19.23
18.49
17.57
16.7
16.1
15.89
15.93
15.94
15.59
14.71
13.39
11.87
10.46
9.31
8.42
7.64
6.83
5.94
5.02
4.17
3.42
2.74
1.97
0.96
-0.42
-2.23
-4.48
-7.12
-10.11
-13.34
-16.7
-20.0
-23.08
-25.75
-27.97
-29.73
-31.14
-32.36
-33.51
-34.54
-35.31
-35.54
-34.95
-33.31
-30.58
-26.93
-22.62
-18.03
-13.47
-9.19
-5.27
-1.73
1.48
4.41
7.06
9.4
11.39
13.04
14.38
15.51
16.5
17.41
18.24
18.95
19.51
19.91
20.15
20.27
20.29
20.19
19.93
19.43
18.63
17.53
16.24
14.89
13.58
12.31
10.99
9.54
7.95
6.29
4.65
3.11
1.56
-0.12
-2.1
-4.41
-6.88
-9.25
-11.26
-12.85
-14.14
-15.36
-16.67
-18.2
-19.91
-21.76
-23.73
-25.8
-28.01
-30.35
-32.7
-34.81
-36.34
-36.95
-36.32
-34.26
-30.79
-26.17
-20.83
-15.33
-10.08
-5.36
-1.31
2.07
4.78
6.85
8.41
9.65
10.8
12.06
13.54
15.2
16.88
18.35
19.5
20.27
20.73
20.98
21.08
21.11
21.05
20.84
20.35
19.5
18.24
16.61
14.74
12.78
10.87
9.04
7.38
5.84
4.38
3.01
1.64
0.21
-1.37
-3.21
-5.4
-7.94
-10.78
-13.81
-16.93
-20.07
-23.16
-26.16
-28.98
-31.46
-33.38
-34.47
-34.54
-33.49
-31.34
-28.12
-23.99
-19.02
-13.36
-7.27
-1.01
5.02
10.55
15.31
19.28
22.49
25.05
27.05
28.48
29.28
29.36
28.72
27.46
25.78
23.98
22.37
21.2
20.6
20.55
20.86
21.23
21.39
21.11
20.31
19.11
17.67
16.09
14.46
12.71
10.83
8.85
6.84
4.88
2.95
0.98
-1.15
-3.46
-5.86
-8.15
-10.16
-11.89
-13.57
-15.55
-18.12
-21.4
-25.3
-29.6
-34.05
-38.38
-42.32
-45.51
-47.54
-47.96
-46.52
-43.18
-38.24
-32.17
-25.49
-18.66
-11.96
-5.58
0.39
5.86
10.81
15.23
19.19
22.72
25.85
28.51
30.62
32.13
33.03
33.4
33.35
32.97
32.32
31.45
30.41
29.32
28.31
27.53
26.98
26.54
25.91
24.86
23.23
21.06
18.54
15.94
13.43
11.12
9.0
7.0
5.1
3.32
1.7
0.23
-1.09
-2.36
-3.66
-5.11
-6.82
-8.84
-11.18
-13.81
-16.63
-19.5
-22.31
-24.91
-27.33
-29.61
-31.92
-34.38
-36.99
-39.61
-41.86
-43.26
-43.36
-41.85
-38.69
-34.15
-28.66
-22.74
-16.84
-11.25
-6.08
-1.3
3.18
7.39
11.3
14.83
17.9
20.5
22.7
24.59
26.2
27.51
28.44
28.93
29.02
28.79
28.41
27.98
27.55
27.12
26.68
26.16
25.5
24.64
23.46
21.93
20.1
18.07
15.93
13.75
11.51
9.09
6.46
3.61
0.67
-2.2
-4.9
-7.43
-9.81
-12.15
-14.49
-16.81
-19.11
-21.38
-23.64
-25.98
-28.35
-30.68
-32.69
-34.0
-34.22
-33.1
-30.56
-26.75
-21.98
-16.6
-10.98
-5.39
-0.02
5.03
9.67
13.76
17.19
19.83
21.69
22.85
23.5
23.82
23.96
23.93
23.76
23.45
23.04
22.66
22.35
22.11
21.83
21.36
20.61
19.56
18.17
16.38
14.15
11.45
8.41
5.24
2.13
-0.78
-3.48
-6.06
-8.6
-11.09
-13.48
-15.72
-17.91
-20.22
-22.9
-26.07
-29.55
-32.88
-35.41
-36.55
-35.88
-33.32
-29.09
-23.67
-17.58
-11.32
-5.26
0.34
5.25
9.36
12.57
14.92
16.55
17.67
18.55
19.38
20.31
21.29
22.24
22.98
23.43
23.57
23.49
23.32
23.14
22.95
22.68
22.17
21.31
19.99
18.2
16.01
13.63
11.28
9.21
7.59
6.45
5.62
4.82
3.79
2.35
0.47
-1.85
-4.54
-7.57
-10.89
-14.4
-17.98
-21.5
-24.9
-28.19
-31.4
-34.53
-37.4
-39.7
-41.06
-41.17
-39.84
-37.08
-33.03
-27.96
-22.15
-15.91
-9.57
-3.35
2.57
8.13
13.3
18.1
22.5
26.4
29.67
32.12
33.63
34.17
33.83
32.88
31.66
30.56
29.84
29.6
29.73
29.99
30.09
29.81
29.09
28.0
26.67
25.22
23.76
22.32
20.92
19.58
18.26
16.94
15.56
14.03
12.25
10.24
8.0
5.69
3.42
1.29
-0.69
-2.56
-4.43
-6.42
-8.63
-11.14
-13.88
-16.7
-19.35
-21.58
-23.36
-24.83
-26.33
-28.23
-30.79
-33.99
-37.57
-41.2
-44.54
-47.41
-49.59
-50.84
-50.77
-49.0
-45.29
-39.73
-32.83
-25.28
-17.81
-10.85
-4.6
1.01
6.02
10.43
14.16
17.16
19.5
21.39
23.11
24.81
26.52
28.08
29.23
29.78
29.72
29.28
28.74
28.33
28.06
27.82
27.34
26.44
25.16
23.73
22.5
21.69
21.33
21.15
20.83
20.2
19.25
18.2
17.27
16.51
15.74
14.59
12.72
9.96
6.43
2.42
-1.72
-5.73
-9.48
-12.96
-16.17
-19.11
-21.71
-23.87
-25.56
-26.87
-28.06
-29.45
-31.33
-33.71
-36.32
-38.6
-39.89
-39.71
-37.81
-34.31
-29.53
-23.83
-17.53
-10.86
-4.09
2.43
8.28
13.07
16.62
18.98
20.44
21.35
21.97
22.4
22.63
22.57
22.25
21.77
21.3
20.98
20.88
20.97
21.17
21.39
21.55
21.58
21.4
20.91
20.01
18.68
16.93
14.94
12.94
11.2
9.91
9.03
8.38
7.63
6.55
5.03
3.19
1.19
-0.76
-2.6
-4.4
-6.25
-8.28
-10.51
-12.91
-15.35
-17.75
-20.06
-22.32
-24.63
-27.12
-29.87
-32.86
-35.91
-38.72
-40.95
-42.34
-42.66
-41.84
-39.84
-36.7
-32.5
-27.36
-21.52
-15.34
-9.26
-3.69
1.09
4.97
8.05
10.5
12.56
14.39
16.13
17.8
19.4
20.89
22.2
23.27
24.08
24.69
25.21
25.7
26.11
26.29
26.07
25.37
24.28
22.91
21.4
19.83
18.12
16.2
14.08
11.9
9.84
8.01
6.37
4.73
2.93
0.94
-1.13
-3.06
-4.69
-6.05
-7.31
-8.71
-10.44
-12.53
-14.91
-17.46
-20.02
-22.49
-24.8
-26.91
-28.77
-30.41
-31.89
-33.31
-34.75
-36.15
-37.38
-38.11
-38.01
-36.81
-34.37
-30.71
-25.97
-20.46
-14.56
-8.71
-3.34
1.28
5.04
8.03
10.46
12.53
14.42
16.19
17.81
19.23
20.38
21.19
21.65
21.79
21.74
21.69
21.82
22.2
22.77
23.42
23.9
24.09
23.87
23.23
22.17
20.73
19.02
17.15
15.36
13.85
12.72
11.87
11.11
10.12
8.65
6.63
4.17
1.46
-1.29
-4.07
-6.96
-10.04
-13.28
-16.53
-19.58
-22.32
-24.77
-27.13
-29.55
-32.1
-34.73
-37.3
-39.73
-41.94
-43.88
-45.41
-46.27
-46.1
-44.6
-41.62
-37.18
-31.49
-24.89
-17.76
-10.49
-3.45
3.05
8.8
13.61
17.41
20.19
22.0
22.94
23.16
22.81
22.11
21.26
20.46
19.89
19.64
19.71
19.99
20.3
20.48
20.41
20.05
19.44
18.63
17.67
16.5
15.06
13.27
11.16
8.85
6.57
4.5
2.76
1.35
0.16
-0.95
-2.08
-3.29
-4.58
-6.0
-7.67
-9.72
-12.27
-15.34
-18.79
-22.39
-25.77
-28.59
-30.48
-31.23
-30.71
-28.96
-26.15
-22.51
-18.3
-13.75
-9.05
-4.34
0.28
4.69
8.81
12.51
15.67
18.16
19.93
20.99
21.39
21.26
20.74
19.99
19.16
18.35
17.71
17.35
17.45
18.07
19.19
20.63
22.07
23.16
23.6
23.25
22.11
20.32
18.03
15.39
12.45
9.23
5.73
2.03
-1.73
-5.34
-8.6
-11.36
-13.65
-15.66
-17.69
-20.0
-22.72
-25.81
-29.04
-32.12
-34.7
-36.58
-37.58
-37.61
-36.55
-34.35
-30.98
-26.57
-21.41
-15.9
-10.48
-5.45
-0.94
3.15
6.96
10.54
13.85
16.76
19.12
20.93
22.28
23.3
24.13
24.83
25.42
25.84
26.09
26.19
26.18
26.11
26.11
26.17
26.21
26.07
25.51
24.36
22.57
20.31
17.78
15.2
12.64
10.06
7.42
4.71
1.97
-0.67
-3.11
-5.32
-7.36
-9.29
-11.18
-13.04
-14.89
-16.81
-18.84
-21.0
-23.23
-25.38
-27.38
-29.2
-30.92
-32.63
-34.32
-35.78
-36.71
-36.7
-35.46
-32.92
-29.23
-24.66
-19.53
-14.11
-8.57
-3.1
2.23
7.32
12.06
16.36
20.14
23.34
25.96
27.98
29.33
29.95
29.79
28.96
27.67
26.29
25.1
24.32
23.97
23.9
23.89
23.8
23.58
23.22
22.7
21.9
20.69
18.97
16.75
14.2
11.53
8.87
6.41
4.19
2.21
0.53
-0.84
-1.92
-2.71
-3.29
-3.76
-4.19
-4.66
-5.24
-5.96
-6.9
-8.14
-9.73
-11.7
-13.99
-16.45
-18.86
-21.01
-22.8
-24.27
-25.64
-27.12
-28.92
-31.07
-33.47
-35.89
-38.09
-39.81
-40.82
-40.86
-39.71
-37.16
-33.25
-28.16
-22.27
-16.08
-9.97
-4.25
0.9
5.38
9.1
11.98
14.03
15.38
16.26
16.97
17.77
18.79
19.93
21.03
21.86
22.33
22.49
22.52
22.61
22.86
23.2
23.42
23.29
22.76
21.89
20.79
19.52
18.04
16.21
13.97
11.49
9.09
7.14
5.81
4.98
4.27
3.3
1.81
-0.22
-2.55
-4.96
-7.31
-9.66
-12.16
-14.97
-18.12
-21.42
-24.63
-27.49
-29.89
-31.86
-33.48
-34.77
-35.5
-35.31
-33.75
-30.62
-26.01
-20.39
-14.37
-8.49
-3.09
1.78
6.15
10.06
13.48
16.36
18.65
20.43
21.85
23.0
23.89
24.35
24.22
23.42
22.11
20.6
19.3
18.48
18.18
18.29
18.52
18.55
18.16
17.24
15.81
14.02
12.07
10.15
8.44
7.01
5.84
4.92
4.11
3.31
2.34
1.06
-0.64
-2.71
-5.05
-7.47
-9.83
-12.18
-14.69
-17.51
-20.72
-24.2
-27.7
-31.04
-34.08
-36.76
-39.15
-41.19
-42.73
-43.58
-43.4
-41.93
-39.01
-34.59
-28.83
-22.07
-14.75
-7.4
-0.49
5.64
10.77
14.84
17.95
20.25
21.89
23.04
23.78
24.16
24.22
24.03
23.68
23.27
22.85
22.47
22.12
21.82
21.59
21.44
21.33
21.15
20.76
19.98
18.72
17.01
14.93
12.65
10.35
8.16
6.21
4.56
3.22
2.18
1.33
0.58
-0.24
-1.27
-2.59
-4.29
-6.35
-8.72
-11.29
-13.93
-16.54
-19.13
-21.7
-24.27
-26.84
-29.38
-31.84
-34.17
-36.37
-38.4
-40.12
-41.35
-41.81
-41.24
-39.46
-36.41
-32.17
-26.98
-21.15
-15.04
-9.04
-3.51
1.3
5.29
8.45
10.89
12.73
14.08
15.13
16.04
16.94
17.87
18.76
19.36
19.51
19.17
18.5
17.85
17.56
17.9
18.82
20.1
21.34
22.2
22.49
22.18
21.37
20.22
18.88
17.44
15.94
14.4
12.82
11.19
9.48
7.63
5.56
3.27
0.8
-1.77
-4.24
-6.48
-8.42
-10.11
-11.69
-13.39
-15.38
-17.74
-20.52
-23.63
-26.92
-30.15
-33.11
-35.63
-37.65
-39.17
-40.08
-40.19
-39.15
-36.57
-32.24
-26.17
-18.81
-10.81
-2.92
4.25
10.32
15.22
19.01
21.85
23.96
25.58
26.93
28.17
29.35
30.35
31.01
31.17
30.75
29.9
28.85
27.76
26.75
25.77
24.68
23.35
21.73
19.77
17.52
14.96
12.07
8.93
5.66
2.46
-0.39
-2.73
-4.55
-6.02
-7.43
-9.06
-11.05
-13.37
-15.83
-18.24
-20.45
-22.5
-24.53
-26.67
-28.98
-31.36
-33.51
-35.07
-35.71
-35.15
-33.3
-30.21
-26.02
-21.01
-15.5
-9.81
-4.3
0.79
5.27
9.13
12.5
15.6
18.62
21.61
24.5
27.05
29.0
30.15
30.52
30.28
29.68
28.96
28.23
27.52
26.77
25.91
24.9
23.7
22.31
20.8
19.29
17.81
16.43
15.16
14.02
13.06
12.28
11.65
11.07
10.42
9.49
8.18
6.5
4.55
2.51
0.51
-1.44
-3.34
-5.3
-7.42
-9.79
-12.48
-15.47
-18.62
-21.75
-24.7
-27.43
-30.07
-32.77
-35.63
-38.53
-41.27
-43.44
-44.68
-44.67
-43.23
-40.32
-35.9
-30.13
-23.32
-16.02
-8.77
-2.07
3.82
8.85
13.15
16.92
20.33
23.38
26.0
28.08
29.55
30.39
30.69
30.55
30.13
29.6
29.11
28.83
28.84
29.1
29.4
29.54
29.28
28.52
27.32
25.84
24.29
22.74
21.23
19.68
18.11
16.55
15.06
13.65
12.3
10.92
9.49
8.1
6.87
5.93
5.23
4.6
3.8
2.63
1.04
-0.88
-3.01
-5.27
-7.64
-10.18
-12.85
-15.54
-18.11
-20.45
-22.55
-24.59
-26.7
-29.02
-31.53
-34.16
-36.76
-39.26
-41.6
-43.71
-45.38
-46.32
-46.09
-44.32
-40.79
-35.55
-28.95
-21.55
-14.0
-6.91
-0.66
4.57
8.82
12.29
15.19
17.63
19.65
21.24
22.4
23.22
23.81
24.21
24.5
24.62
24.54
24.26
23.86
23.55
23.47
23.66
23.97
24.21
24.11
23.5
22.35
20.74
18.89
17.08
15.6
14.58
14.01
13.67
13.21
12.35
10.98
9.21
7.3
5.55
4.05
2.71
1.29
-0.43
-2.55
-5.0
-7.64
-10.38
-13.16
-15.98
-18.79
-21.46
-23.84
-25.74
-27.14
-28.19
-29.19
-30.42
-32.02
-33.78
-35.24
-35.78
-34.89
-32.32
-28.23
-23.03
-17.28
-11.52
-6.14
-1.37
2.62
5.81
8.26
10.09
11.6
13.07
14.71
16.58
18.49
20.16
21.32
21.84
21.8
21.37
20.75
20.01
19.13
18.0
16.48
14.63
12.62
10.69
8.99
7.56
6.26
4.93
3.3
1.13
-1.54
-4.49
-7.29
-9.55
-11.12
-12.02
-12.54
-13.13
-14.27
-15.94
-17.73
-18.97
-19.15
-18.21
-16.45
-14.39
-12.75
-12.11
-12.35
-12.69
-12.05
-9.54
-4.91
1.8
10.48
20.62
30.37
37.77
41.51
41.57
39.17
35.93
33.95
35.39
41.17
51.0
63.46
76.65
88.45
98.98
107.16
112.63
115.71
115.99
112.96
106.42
96.93
85.25
72.15
57.87
41.63
25.31
10.29
-2.61
-15.19
-28.52
-43.21
-59.53
-77.83
-98.43
-117.62
-133.63
-145.35
-152.15
-153.41
-148.85
-138.67
-123.72
-105.26
-84.78
-64.7
-47.03
-32.87
-22.08
-14.06
-8.05
-3.54
-0.13
2.67
4.71
5.75
5.41
3.42
-0.61
-6.77
-14.74
-23.59
-32.02
-39.07
-44.05
-46.72
-47.07
-45.33
-41.81
-36.87
-30.91
-24.38
-17.89
-11.89
-6.62
-2.05
2.03
5.77
9.25
12.42
15.14
17.21
18.53
19.07
18.94
18.39
17.68
17.12
16.91
17.15
17.74
18.5
19.16
19.49
19.4
18.92
18.14
17.18
16.11
14.92
13.56
11.99
10.23
8.35
6.41
4.55
2.82
1.26
-0.08
-1.29
-2.43
-3.71
-5.32
-7.46
-10.13
-13.21
-16.4
-19.41
-22.07
-24.31
-26.25
-28.07
-29.98
-31.98
-33.98
-35.76
-36.94
-37.14
-36.03
-33.47
-29.5
-24.45
-18.76
-12.88
-7.22
-1.94
2.94
7.46
11.6
15.25
18.2
20.29
21.52
22.07
22.28
22.46
22.82
23.29
23.63
23.59
23.07
22.15
21.11
20.24
19.73
19.52
19.46
19.35
18.99
18.29
17.24
15.86
14.22
12.4
10.42
8.24
5.77
2.92
-0.35
-3.89
-7.52
-11.07
-14.53
-18.02
-21.64
-25.32
-28.64
-31.02
-31.83
-30.77
-28.01
-24.06
-19.54
-14.92
-10.34
-5.67
-0.72
4.59
10.04
15.32
20.01
23.86
26.79
28.86
30.23
31.07
31.55
31.76
31.79
31.7
31.5
31.13
30.52
29.6
28.31
26.66
24.71
22.53
20.25
17.98
15.73
13.51
11.25
8.92
6.54
4.21
2.02
0.01
-1.9
-3.82
-5.83
-7.97
-10.14
-12.17
-13.96
-15.59
-17.27
-19.24
-21.68
-24.52
-27.52
-30.23
-32.2
-33.13
-32.91
-31.57
-29.25
-26.1
-22.21
-17.66
-12.54
-7.01
-1.28
4.35
9.59
14.16
17.96
21.06
23.62
25.87
27.91
29.77
31.39
32.63
33.39
33.65
33.49
33.03
32.41
31.77
31.22
30.77
30.36
29.79
28.89
27.6
25.96
24.2
22.56
21.13
19.9
18.68
17.35
15.82
14.15
12.43
10.75
9.14
7.56
5.92
4.16
2.27
0.29
-1.73
-3.69
-5.54
-7.3
-9.0
-10.7
-12.44
-14.26
-16.17
-18.12
-20.05
-21.82
-23.36
-24.65
-25.85
-27.21
-29.09
-31.71
-35.11
-38.95
-42.67
-45.63
-47.28
-47.3
-45.64
-42.49
-38.15
-32.97
-27.22
-21.17
-15.01
-8.9
-2.97
2.72
8.06
12.98
17.34
20.98
23.82
25.83
27.12
27.82
28.08
27.97
27.53
26.8
25.8
24.66
23.56
22.63
21.92
21.4
20.94
20.42
19.7
18.72
17.46
16.01
14.51
13.09
11.87
10.9
10.15
9.51
8.86
8.16
7.4
6.66
6.0
5.45
5.0
4.55
3.99
3.15
1.83
-0.08
-2.54
-5.38
-8.37
-11.31
-14.14
-16.98
-20.04
-23.56
-27.61
-32.09
-36.67
-40.92
-44.29
-46.33
-46.71
-45.29
-42.23
-37.87
-32.68
-27.06
-21.34
-15.72
-10.3
-5.14
-0.32
4.04
7.84
11.07
13.75
15.97
17.84
19.45
20.81
21.89
22.61
22.98
23.06
22.93
22.7
22.44
22.11
21.6
20.83
19.81
18.65
17.5
16.46
15.51
14.57
13.53
12.26
10.72
9.01
7.22
5.5
3.94
2.59
1.41
0.3
-0.86
-2.17
-3.71
-5.49
-7.47
-9.59
-11.74
-13.88
-15.98
-18.08
-20.29
-22.78
-25.66
-28.95
-32.39
-35.52
-37.77
-38.66
-37.92
-35.59
-32.0
-27.58
-22.73
-17.74
-12.8
-7.99
-3.42
0.83
4.72
8.18
11.19
13.74
15.83
17.43
18.51
19.01
18.93
18.33
17.41
16.45
15.76
15.53
15.77
16.26
16.71
16.88
16.66
16.19
15.65
15.2
14.85
14.49
13.98
13.2
12.19
11.01
9.73
8.41
7.04
5.61
4.13
2.64
1.18
-0.23
-1.62
-3.11
-4.76
-6.65
-8.82
-11.29
-14.05
-17.04
-20.19
-23.46
-26.87
-30.38
-33.9
-37.1
-39.53
-40.69
-40.22
-38.05
-34.47
-29.95
-25.03
-20.11
-15.4
-10.93
-6.65
-2.46
1.7
5.83
9.85
13.59
16.85
19.48
21.43
22.74
23.53
23.95
24.11
24.12
24.02
23.89
23.76
23.63
23.47
23.22
22.81
22.26
21.6
20.89
20.19
19.51
18.81
17.97
16.86
15.37
13.49
11.3
8.98
6.75
4.71
2.84
1.0
-0.97
-3.22
-5.75
-8.5
-11.32
-14.15
-16.97
-19.81
-22.68
-25.56
-28.44
-31.3
-34.13
-36.91
-39.5
-41.62
-42.84
-42.72
-40.96
-37.56
-32.86
-27.48
-22.05
-17.0
-12.45
-8.15
-3.79
0.88
5.83
10.83
15.41
19.13
21.78
23.35
24.12
24.43
24.57
24.72
24.91
25.1
25.19
25.17
25.0
24.7
24.25
23.61
22.72
21.61
20.34
19.07
17.94
17.08
16.51
16.12
15.72
15.06
13.93
12.27
10.24
8.07
6.0
4.18
2.6
1.03
-0.8
-3.07
-5.84
-8.92
-12.03
-14.9
-17.33
-19.3
-21.03
-22.78
-24.85
-27.44
-30.47
-33.58
-36.25
-37.89
-38.05
-36.59
-33.65
-29.65
-25.05
-20.25
-15.43
-10.63
-5.83
-1.0
3.74
8.26
12.33
15.82
18.68
20.88
22.43
23.29
23.48
23.07
22.25
21.3
20.5
20.1
20.12
20.45
20.84
21.07
20.92
20.34
19.34
18.08
16.73
15.48
14.49
13.72
13.06
12.28
11.23
9.89
8.37
6.91
5.59
4.41
3.2
1.8
0.11
-1.81
-3.84
-5.88
-7.92
-10.0
-12.18
-14.41
-16.6
-18.68
-20.76
-23.01
-25.69
-28.87
-32.39
-35.75
-38.36
-39.65
-39.36
-37.5
-34.37
-30.32
-25.67
-20.65
-15.34
-9.84
-4.23
1.36
6.69
11.52
15.65
18.94
21.36
23.03
24.12
24.79
25.14
25.18
24.89
