BVP
9.57
7.41
5.11
2.84
0.72
-1.22
-3.03
-4.78
-6.46
-8.06
-9.51
-10.81
-11.95
-12.96
-13.81
-14.47
-14.94
-15.31
-15.75
-16.45
-17.59
-19.18
-21.16
-23.37
-25.63
-27.78
-29.72
-31.25
-32.08
-31.87
-30.26
-27.02
-22.19
-16.0
-8.91
-1.52
5.62
12.1
17.73
22.64
27.25
32.24
38.31
45.95
55.21
65.47
75.5
83.75
88.7
88.99
84.38
76.04
66.15
57.2
51.42
50.46
55.14
65.35
79.76
96.54
113.67
129.11
141.15
148.94
153.0
155.06
157.35
160.65
165.14
170.62
176.21
180.27
180.94
176.83
167.41
152.9
131.45
102.95
69.47
33.24
-5.41
-47.59
-94.27
-144.62
-195.17
-245.0
-288.21
-314.15
-313.6
-285.14
-235.95
-178.47
-125.6
-86.9
-74.27
-88.89
-121.07
-158.9
-196.9
-236.23
-280.26
-330.27
-384.36
-447.9
-517.85
-581.68
-626.42
-647.97
-650.81
-642.69
-629.89
-545.91
-376.36
-166.8
22.83
164.01
255.53
306.19
325.83
330.06
329.35
319.21
297.7
269.93
242.87
219.78
200.5
184.99
174.56
169.77
161.95
146.33
125.57
105.42
88.93
76.09
66.12
58.82
53.98
46.87
36.46
26.75
22.93
26.95
37.13
50.17
62.9
72.82
76.35
72.83
64.85
56.01
48.58
43.26
39.99
38.63
38.82
39.33
39.4
39.06
38.64
38.14
37.42
36.51
35.64
35.11
35.08
35.51
36.05
36.27
35.8
34.5
32.49
30.09
27.62
25.28
23.03
20.58
17.63
14.0
9.86
5.75
2.48
0.83
1.25
3.72
7.71
12.41
17.01
20.87
23.7
25.43
26.19
26.12
25.35
24.0
22.26
20.34
18.46
16.83
15.55
14.66
14.11
13.85
13.8
13.88
14.0
14.03
13.89
13.52
12.92
12.1
11.08
9.86
8.41
6.7
4.69
2.39
-0.19
-2.99
-5.94
-8.89
-11.74
-14.4
-16.86
-19.24
-21.73
-24.5
-27.69
-31.25
-34.91
-38.16
-40.33
-40.76
-39.0
-35.02
-29.19
-22.25
-15.0
-8.09
-1.9
3.48
8.07
11.89
14.89
16.95
18.09
18.44
18.32
18.06
17.97
18.15
18.62
19.25
19.94
20.6
21.2
21.72
22.16
22.49
22.63
22.46
21.86
20.76
19.23
17.43
15.65
14.11
12.96
12.13
11.42
10.54
9.2
7.26
4.67
1.55
-1.9
-5.41
-8.74
-11.69
-14.18
-16.31
-18.28
-20.43
-23.0
-26.13
-29.64
-33.01
-35.51
-36.31
-34.79
-30.75
-24.51
-16.79
-8.53
-0.56
6.55
12.55
17.42
21.18
23.76
25.1
25.18
24.23
22.69
21.11
19.98
19.49
19.57
19.93
20.29
20.47
20.5
20.47
20.47
20.46
20.35
20.0
19.35
18.39
17.18
15.75
14.13
12.29
10.28
8.2
6.2
4.43
2.93
1.63
0.39
-0.97
-2.56
-4.39
-6.43
-8.65
-11.06
-13.7
-16.64
-19.94
-23.6
-27.55
-31.68
-35.71
-39.19
-41.52
-42.12
-40.56
-36.74
-30.86
-23.39
-14.9
-6.05
2.47
9.95
15.75
19.51
21.2
21.28
20.42
19.38
18.64
18.38
18.46
18.73
19.06
19.49
20.1
20.9
21.71
22.23
22.13
21.2
19.51
17.32
14.96
12.66
10.48
8.36
6.16
3.81
1.33
-1.22
-3.73
-6.17
-8.54
-10.92
-13.35
-15.9
-18.67
-21.72
-25.14
-28.99
-33.17
-37.45
-41.42
-44.54
-46.31
-46.35
-44.58
-41.29
-37.08
-32.65
-28.64
-25.46
-23.25
-21.97
-21.51
-21.77
-22.66
-23.99
-25.41
-26.48
-26.75
-25.98
-24.11
-21.29
-17.72
-13.57
-8.98
-4.11
0.75
5.25
8.98
11.6
12.82
12.46
10.44
6.85
2.09
-3.17
-8.05
-11.88
-14.42
-15.94
-17.04
-18.28
-19.84
-21.51
-22.86
-23.59
-23.7
-23.51
-23.43
-23.68
-24.11
-24.24
-23.46
-21.26
-17.31
-11.6
-4.36
3.93
12.66
21.15
28.85
35.33
40.37
43.9
45.97
46.69
46.28
45.01
43.23
41.33
39.57
38.13
37.03
36.15
35.42
34.77
34.22
33.74
33.27
32.7
31.91
30.9
29.73
28.53
27.37
26.24
24.95
23.31
21.14
18.42
15.29
11.99
8.77
5.76
2.96
0.25
-2.55
-5.63
-9.07
-12.85
-16.73
-20.3
-23.01
-24.29
-23.69
-21.06
-16.59
-10.75
-4.13
2.67
9.24
15.24
20.42
24.54
27.37
28.76
28.77
27.68
25.94
24.1
22.6
21.69
21.4
21.53
21.83
22.02
21.95
21.59
21.0
20.24
19.33
18.18
16.66
14.71
12.41
9.99
7.7
5.74
4.08
2.46
0.53
-2.04
-5.36
-9.3
-13.49
-17.49
-20.8
-23.05
-23.95
-23.36
-21.28
-17.82
-13.22
-7.76
-1.8
4.25
9.96
14.91
18.75
21.25
22.42
22.43
21.63
20.35
18.93
17.53
16.26
15.13
14.1
13.1
12.08
10.99
9.82
8.6
7.38
6.16
4.88
3.42
1.68
-0.37
-2.61
-4.86
-6.91
-8.65
-10.11
-11.52
-13.17
-15.4
-18.4
-22.13
-26.2
-29.91
-32.37
-32.76
-30.61
-25.99
-19.5
-12.08
-4.66
2.12
7.98
12.88
16.91
20.05
22.18
23.19
23.12
22.22
20.89
19.55
18.44
17.58
16.81
15.94
14.91
13.78
12.74
11.99
11.61
11.54
11.58
11.47
10.96
9.93
8.37
6.4
4.19
1.93
-0.27
-2.4
-4.6
-7.07
-10.03
-13.58
-17.59
-21.7
-25.31
-27.79
-28.58
-27.42
-24.36
-19.76
-14.16
-8.12
-2.12
3.44
8.27
12.14
14.88
16.39
16.66
15.79
13.99
11.58
8.96
6.5
4.52
3.18
2.47
2.29
2.46
2.83
3.3
3.78
4.15
4.21
3.75
2.61
0.81
-1.45
-3.83
-6.0
-7.77
-9.17
-10.4
-11.72
-13.4
-15.61
-18.35
-21.42
-24.43
-26.83
-28.01
-27.47
-24.98
-20.67
-14.98
-8.56
-2.03
4.03
9.21
13.24
15.96
17.37
17.54
16.66
15.0
12.91
10.74
8.82
7.37
6.48
6.08
6.02
6.11
6.21
6.21
6.06
5.66
4.93
3.75
2.1
0.04
-2.24
-4.52
-6.59
-8.38
-10.01
-11.65
-13.6
-16.03
-19.0
-22.31
-25.58
-28.26
-29.76
-29.54
-27.3
-23.06
-17.16
-10.25
-3.11
3.54
9.24
13.73
16.97
18.99
19.81
19.47
18.1
16.0
13.59
11.36
9.65
8.58
8.01
7.69
7.43
7.15
6.9
6.78
6.79
6.79
6.55
5.85
4.64
3.0
1.11
-0.88
-2.92
-5.08
-7.46
-10.06
-12.77
-15.46
-18.01
-20.48
-23.02
-25.76
-28.64
-31.28
-33.05
-33.23
-31.35
-27.28
-21.34
-14.17
-6.53
0.85
7.39
12.67
16.45
18.62
19.29
18.7
17.3
15.59
14.03
12.91
12.27
11.95
11.69
11.27
10.61
9.82
9.13
8.75
8.77
9.08
9.39
9.34
8.64
7.21
5.24
3.04
0.93
-0.91
-2.51
-4.06
-5.75
-7.66
-9.7
-11.64
-13.31
-14.65
-15.78
-16.92
-18.29
-20.03
-22.2
-24.72
-27.43
-30.03
-32.08
-33.02
-32.36
-29.78
-25.29
-19.27
-12.36
-5.28
1.33
7.03
11.54
14.71
16.48
16.88
16.11
14.53
12.6
10.79
9.43
8.69
8.56
8.92
9.58
10.33
10.99
11.42
11.52
11.33
10.91
10.36
9.77
9.14
8.46
7.65
6.68
5.5
4.14
2.61
0.92
-0.9
-2.85
-4.91
-7.05
-9.13
-11.06
-12.75
-14.22
-15.56
-16.92
-18.37
-19.92
-21.52
-23.16
-24.92
-26.92
-29.16
-31.4
-33.09
-33.48
-31.96
-28.25
-22.55
-15.51
-7.95
-0.73
5.56
10.59
14.26
16.59
17.68
17.69
16.8
15.29
13.54
11.93
10.77
10.2
10.2
10.56
11.07
11.56
11.93
12.16
12.25
12.16
11.87
11.35
10.61
9.66
8.54
7.29
5.95
4.49
2.91
1.15
-0.83
-3.02
-5.37
-7.72
-9.9
-11.75
-13.2
-14.38
-15.51
-16.83
-18.56
-20.72
-23.24
-25.86
-28.21
-29.82
-30.18
-28.83
-25.51
-20.28
-13.55
-6.02
1.49
8.3
13.92
18.16
21.01
22.52
22.8
21.99
20.35
18.24
16.06
14.17
12.8
12.05
11.88
12.15
12.73
13.48
14.24
14.86
15.18
15.09
14.52
13.53
12.23
10.84
9.51
8.37
7.42
6.59
5.73
4.74
3.53
2.14
0.64
-0.87
-2.34
-3.74
-5.09
-6.42
-7.78
-9.18
-10.62
-12.07
-13.49
-14.83
-16.07
-17.27
-18.57
-20.14
-22.14
-24.56
-27.14
-29.31
-30.35
-29.56
-26.58
-21.5
-14.88
-7.56
-0.35
6.12
11.54
15.83
19.0
21.04
21.92
21.66
20.4
18.48
16.33
14.41
13.01
12.24
11.99
12.1
12.37
12.69
13.01
13.29
13.55
13.76
13.88
13.88
13.7
13.28
12.58
11.6
10.35
8.91
7.34
5.71
4.09
2.49
0.92
-0.66
-2.23
-3.85
-5.5
-7.17
-8.85
-10.49
-12.04
-13.47
-14.78
-15.99
-17.16
-18.35
-19.64
-21.18
-23.06
-25.31
-27.7
-29.74
-30.71
-29.9
-26.82
-21.49
-14.47
-6.68
0.87
7.4
12.51
16.1
18.31
19.26
19.09
17.9
15.89
13.38
10.79
8.56
7.02
6.34
6.47
7.2
8.26
9.38
10.35
11.05
11.43
11.46
11.13
10.47
9.5
8.28
6.93
5.51
4.11
2.77
1.49
0.26
-0.93
-2.11
-3.31
-4.54
-5.8
-7.07
-8.29
-9.41
-10.37
-11.19
-11.98
-12.96
-14.38
-16.39
-18.92
-21.69
-24.2
-25.87
-26.19
-24.82
-21.67
-16.94
-11.08
-4.73
1.43
6.81
11.05
13.99
15.72
16.38
16.18
15.3
13.94
12.32
10.7
9.31
8.29
7.72
7.57
7.77
8.23
8.82
9.43
9.93
10.23
10.31
10.14
9.75
9.15
8.34
7.31
6.11
4.77
3.37
1.96
0.56
-0.87
-2.37
-3.99
-5.75
-7.59
-9.39
-11.04
-12.44
-13.55
-14.43
-15.22
-16.15
-17.46
-19.3
-21.63
-24.13
-26.25
-27.39
-27.04
-24.95
-21.21
-16.17
-10.35
-4.29
1.53
6.74
11.05
14.26
16.23
16.93
16.46
15.1
13.21
11.16
9.3
7.85
6.91
6.5
6.54
6.98
7.72
8.65
9.67
10.59
11.24
11.47
11.17
10.34
9.07
7.53
5.93
4.44
3.14
2.03
0.99
-0.1
-1.38
-2.92
-4.71
-6.66
-8.63
-10.46
-12.07
-13.41
-14.53
-15.51
-16.43
-17.35
-18.35
-19.53
-20.98
-22.71
-24.54
-26.1
-26.85
-26.24
-23.95
-19.91
-14.45
-8.13
-1.62
4.42
9.51
13.38
15.97
17.36
17.74
17.31
16.25
14.76
13.03
11.3
9.82
8.8
8.28
8.18
8.25
8.29
8.2
8.01
7.86
7.88
8.12
8.48
8.78
8.89
8.73
8.32
7.66
6.74
5.45
3.73
1.58
-0.83
-3.23
-5.33
-6.97
-8.18
-9.11
-9.95
-10.88
-11.98
-13.32
-14.97
-16.99
-19.34
-21.84
-24.06
-25.5
-25.65
-24.21
-21.14
-16.68
-11.23
-5.3
0.64
6.15
10.9
14.64
17.21
18.53
18.64
17.67
15.85
13.55
11.19
9.16
7.71
6.91
6.67
6.81
7.16
7.62
8.12
8.6
8.96
9.05
8.76
8.02
6.89
5.45
3.8
2.0
0.08
-1.94
-3.99
-6.01
-7.9
-9.64
-11.23
-12.74
-14.21
-15.73
-17.39
-19.24
-21.21
-23.06
-24.35
-24.57
-23.31
-20.43
-16.14
-10.89
-5.27
0.22
5.24
9.57
13.07
15.61
17.06
17.39
16.71
15.3
13.56
11.9
10.63
9.88
9.61
9.67
9.9
10.2
10.54
10.94
11.36
11.71
11.82
11.53
10.79
9.58
8.01
6.19
4.19
2.05
-0.17
-2.39
-4.5
-6.43
-8.21
-10.01
-12.08
-14.51
-17.22
-19.79
-21.66
-22.21
-21.03
-17.94
-13.15
-7.08
-0.37
6.3
12.3
17.09
20.37
22.01
22.13
20.98
18.87
16.13
13.09
10.06
7.35
5.25
3.9
3.23
3.04
3.06
3.06
2.96
2.83
2.76
2.73
2.57
1.99
0.78
-1.07
-3.39
-5.84
-8.15
-10.23
-12.15
-14.1
-16.2
-18.39
-20.39
-21.75
-22.02
-20.85
-18.16
-14.1
-9.01
-3.38
2.31
7.6
12.14
15.67
18.03
19.15
19.11
18.07
16.31
14.15
11.91
9.87
8.18
6.9
6.01
5.46
5.19
5.11
5.12
5.06
4.79
4.17
3.13
1.66
-0.15
-2.19
-4.28
-6.24
-7.95
-9.41
-10.8
-12.39
-14.39
-16.76
-19.17
-21.06
-21.82
-21.03
-18.56
-14.57
-9.46
-3.71
2.15
7.58
12.1
15.33
17.1
17.41
16.52
14.79
12.64
10.44
8.52
7.1
6.3
6.03
6.15
6.39
6.57
6.54
6.24
5.63
4.64
3.22
1.34
-0.92
-3.38
-5.78
-7.91
-9.59
-10.78
-11.51
-11.96
-12.36
-13.01
-14.14
-15.85
-17.96
-20.0
-21.35
-21.39
-19.7
-16.26
-11.39
-5.67
0.23
5.74
10.44
14.09
16.6
17.98
18.41
18.17
17.64
17.21
17.15
17.48
17.96
18.16
17.64
16.15
13.76
10.88
8.05
5.75
4.23
3.44
3.08
2.79
2.29
1.48
0.4
-0.8
-2.0
-3.18
-4.39
-5.7
-7.17
-8.77
-10.44
-12.08
-13.66
-15.19
-16.7
-18.06
-18.96
-18.94
-17.51
-14.41
-9.74
-4.05
1.9
7.33
11.74
14.98
17.16
18.48
19.06
18.91
18.03
16.55
14.76
13.12
12.0
11.59
11.78
12.21
12.52
12.42
11.85
10.97
9.98
9.07
8.32
7.72
7.2
6.69
6.16
5.59
4.94
4.12
3.07
1.71
0.08
-1.69
-3.41
-4.88
-6.01
-6.82
-7.39
-7.9
-8.56
-9.58
-11.14
-13.24
-15.68
-18.02
-19.66
-20.04
-18.87
-16.16
-12.28
-7.76
-3.14
1.16
4.92
8.01
10.37
11.98
12.8
12.83
12.18
10.98
9.5
8.03
6.87
6.18
6.03
6.3
6.78
7.2
7.41
7.33
7.03
6.64
6.26
5.95
5.66
5.33
4.91
4.39
3.78
3.15
2.49
1.79
1.04
0.26
-0.51
-1.21
-1.8
-2.34
-2.89
-3.52
-4.22
-4.94
-5.65
-6.36
-7.13
-8.05
-9.14
-10.31
-11.41
-12.31
-12.99
-13.58
-14.3
-15.38
-16.85
-18.58
-20.19
-21.23
-21.27
-20.04
-17.53
-13.94
-9.67
-5.2
-0.97
2.64
5.44
7.35
8.44
8.82
8.65
8.09
7.3
6.44
5.67
5.11
4.85
4.92
5.26
5.78
6.37
7.0
7.66
8.37
9.19
10.1
11.01
11.77
12.16
11.98
11.14
9.72
7.93
6.08
4.43
3.11
2.1
1.24
0.36
-0.6
-1.55
-2.35
-2.94
-3.35
-3.8
-4.5
-5.59
-6.99
-8.45
-9.7
-10.53
-10.93
-11.1
-11.3
-11.77
-12.6
-13.74
-14.97
-16.03
-16.61
-16.44
-15.36
-13.32
-10.43
-6.93
-3.14
0.57
3.87
6.52
8.37
9.4
9.69
9.35
8.54
7.39
6.06
4.74
3.64
2.94
2.7
2.85
3.16
3.37
3.34
3.08
2.79
2.73
3.05
3.67
4.35
4.71
4.5
3.62
2.23
0.65
-0.78
-1.86
-2.59
-3.14
-3.78
-4.71
-5.97
-7.41
-8.83
-10.0
-10.83
-11.38
-11.78
-12.17
-12.63
-13.18
-13.84
-14.61
-15.45
-16.21
-16.66
-16.44
-15.29
-13.09
-9.94
-6.12
-2.02
2.0
5.58
8.41
10.25
10.96
10.61
9.43
7.89
6.47
5.56
5.32
5.66
6.3
6.91
7.22
7.13
6.72
6.21
5.81
5.64
5.74
5.99
6.24
6.38
6.31
6.03
5.54
4.89
4.14
3.3
2.4
1.42
0.34
-0.84
-2.07
-3.29
-4.38
-5.32
-6.12
-6.88
-7.7
-8.68
-9.9
-11.36
-13.02
-14.77
-16.37
-17.47
-17.71
-16.81
-14.66
-11.42
-7.45
-3.24
0.7
3.99
6.38
7.85
8.5
8.56
8.22
7.63
6.87
6.0
5.17
4.61
4.55
5.09
6.1
7.24
8.09
8.37
8.02
7.19
6.18
5.2
4.38
3.67
3.01
2.27
1.37
0.23
-1.19
-2.88
-4.73
-6.58
-8.22
-9.5
-10.36
-10.87
-11.19
-11.53
-12.05
-12.81
-13.71
-14.53
-14.94
-14.63
-13.4
-11.27
-8.45
-5.28
-2.08
0.99
3.84
6.45
8.75
10.56
11.67
11.91
11.29
10.04
8.5
7.01
5.78
4.83
4.07
3.43
2.93
2.68
2.81
3.34
4.14
4.92
5.37
5.28
4.6
3.42
1.95
0.39
-1.12
-2.54
-3.85
-5.07
-6.24
-7.43
-8.74
-10.27
-12.09
-14.13
-16.17
-17.83
-18.65
-18.24
-16.42
-13.26
-9.11
-4.5
0.01
4.01
7.29
9.8
11.62
12.83
13.42
13.39
12.75
11.59
10.15
8.68
7.45
6.58
6.12
5.97
6.01
6.14
6.22
6.21
6.09
5.87
5.61
5.31
4.92
4.4
3.67
2.7
1.52
0.22
-1.09
-2.29
-3.32
-4.17
-4.9
-5.69
-6.7
-8.1
-9.86
-11.79
-13.49
-14.47
-14.34
-12.91
-10.24
-6.62
-2.5
1.65
5.46
8.69
11.24
13.08
14.24
14.7
14.5
13.74
12.56
11.2
9.87
8.71
7.78
7.09
6.64
6.49
6.68
7.19
7.89
8.55
8.92
8.83
8.28
7.4
6.36
5.32
4.35
3.42
2.5
1.52
0.47
-0.65
-1.82
-3.04
-4.28
-5.5
-6.65
-7.67
-8.61
-9.59
-10.79
-12.35
-14.19
-16.02
-17.36
-17.69
-16.64
-14.16
-10.48
-6.04
-1.33
3.19
7.18
10.4
12.68
13.96
14.3
13.84
12.83
11.55
10.25
9.08
8.12
7.36
6.71
6.11
5.52
4.96
4.47
4.14
4.02
4.08
4.21
4.28
4.12
3.61
2.71
1.45
-0.04
-1.55
-2.87
-3.87
-4.54
-5.01
-5.54
-6.38
-7.73
-9.62
-11.9
-14.22
-16.09
-17.01
-16.59
-14.74
-11.65
-7.79
-3.72
0.06
3.25
5.76
7.64
8.93
9.67
9.85
9.51
8.82
8.01
7.35
7.0
6.97
7.11
7.24
7.19
6.94
6.53
6.07
5.66
5.35
5.16
5.04
4.88
4.61
4.14
3.46
2.6
1.59
0.47
-0.7
-1.9
-3.02
-3.97
-4.69
-5.24
-5.84
-6.81
-8.36
-10.49
-12.88
-15.0
-16.26
-16.18
-14.58
-11.53
-7.36
-2.56
2.36
6.9
10.71
13.55
15.37
16.18
16.09
15.22
13.73
11.79
9.64
7.53
5.74
4.43
3.68
3.4
3.43
3.51
3.45
3.16
2.61
1.89
1.04
0.13
-0.87
-1.93
-3.05
-4.13
-5.08
-5.79
-6.21
-6.37
-6.38
-6.43
-6.73
-7.49
-8.78
-10.55
-12.49
-14.18
-15.11
-14.86
-13.28
-10.49
-6.87
-2.93
0.89
4.3
7.17
9.44
11.02
11.81
11.66
10.57
8.72
6.55
4.59
3.35
3.07
3.71
5.01
6.54
7.9
8.74
8.86
8.15
6.63
4.48
2.01
-0.29
-2.0
-2.79
-2.62
-1.67
-0.31
1.02
1.91
2.03
1.22
-0.59
-3.32
-6.72
-10.26
-13.23
-14.93
-14.83
-12.74
-8.85
-3.77
1.63
6.46
10.21
12.79
14.3
14.9
14.65
13.56
11.56
8.68
5.13
1.63
-0.97
-2.11
-1.7
-0.09
2.24
4.83
7.39
9.85
12.59
15.97
20.0
24.22
28.05
31.21
33.74
35.91
35.54
31.16
23.05
13.55
5.57
1.04
0.34
2.27
4.51
4.47
0.67
-6.54
-15.09
-22.19
-25.91
-25.44
-21.46
-15.86
-10.9
-8.17
-8.1
-10.11
-13.28
-16.95
-20.93
-25.56
-30.17
-32.55
-31.02
-25.45
-17.27
-8.62
-1.25
4.04
7.29
9.24
10.8
12.61
15.08
18.29
22.08
26.1
30.06
33.52
36.31
38.44
40.06
41.62
43.59
46.66
51.32
57.86
65.99
75.25
85.0
94.45
102.89
109.87
115.29
119.34
122.41
124.33
124.75
123.12
118.85
111.62
101.48
88.71
73.2
57.74
44.07
33.12
24.74
17.64
9.79
-0.99
-16.45
-37.49
-63.94
-95.24
-129.89
-165.56
-199.12
-227.11
-246.62
-256.29
-256.94
-251.18
-242.78
-234.63
-227.61
-220.43
-210.61
-196.01
-175.98
-151.65
-125.17
-98.91
-74.3
-51.63
-30.5
-10.49
8.36
25.34
39.31
49.06
53.29
50.93
41.29
24.59
2.7
-20.44
-39.29
-47.92
-41.86
-19.6
16.92
62.86
111.84
157.44
194.35
219.04
230.01
227.69
214.02
191.94
164.67
134.99
104.94
75.86
48.63
24.02
2.72
-14.67
-27.79
-36.54
-41.12
-41.99
-40.11
-36.85
-33.77
-32.29
-33.13
-36.2
-40.65
-45.44
-49.72
-53.2
-56.05
-58.63
-61.12
-63.34
-64.83
-65.13
-64.12
-62.11
-59.85
-58.21
-57.84
-58.91
-61.12
-63.79
-66.24
-68.0
-68.88
-68.92
-68.23
-66.93
-65.16
-63.2
-61.53
-60.56
-60.34
-60.17
-58.62
-53.94
-44.82
-31.15
-14.26
3.41
19.13
30.82
37.6
39.78
38.5
35.16
30.98
26.8
23.16
20.38
18.58
17.78
17.95
19.13
21.41
24.91
29.63
35.24
41.05
46.17
49.76
51.24
50.41
47.36
42.36
35.71
27.76
19.04
10.22
2.04
-4.8
-9.87
-12.99
-14.22
-13.63
-11.27
-7.15
-1.36
5.82
13.84
21.94
29.34
35.34
39.48
41.65
41.99
40.91
38.95
36.61
34.25
32.0
29.87
27.77
25.67
23.61
21.7
20.1
18.88
17.99
17.23
16.33
14.94
12.82
9.88
6.21
2.1
-2.08
-6.0
-9.44
-12.37
-14.97
-17.61
-20.67
-24.42
-28.85
-33.49
-37.41
-39.48
-38.64
-34.39
-26.94
-17.19
-6.5
3.85
12.91
20.19
25.56
29.05
30.69
30.47
28.51
25.13
20.91
16.55
12.69
9.71
7.7
6.53
6.0
5.91
6.12
6.55
7.05
7.5
7.71
7.51
6.72
5.26
3.1
0.31
-2.91
-6.32
-9.63
-12.6
-15.13
-17.25
-19.12
-21.04
-23.34
-26.31
-30.06
-34.37
-38.63
-41.86
-42.94
-40.97
-35.55
-27.02
-16.35
-4.88
6.09
15.58
23.12
28.7
32.51
34.82
35.77
35.41
33.83
31.28
28.23
25.27
22.95
21.57
21.12
21.34
21.93
22.66
23.5
24.51
25.72
26.94
27.79
27.79
26.56
23.99
20.24
15.72
10.92
6.33
2.29
-0.96
-3.42
-5.22
-6.73
-8.43
-10.81
-14.18
-18.4
-22.87
-26.62
-28.54
-27.81
-24.16
-17.96
-10.05
-1.5
6.75
14.05
20.03
24.54
27.53
29.0
29.01
27.71
25.37
22.39
19.23
16.34
14.03
12.43
11.44
10.82
10.34
9.86
9.36
8.91
8.56
8.23
7.77
7.0
5.82
4.25
2.41
0.45
-1.51
-3.42
-5.35
-7.48
-10.12
-13.58
-18.08
-23.55
-29.5
-35.0
-38.89
-40.05
-37.74
-31.82
-22.87
-11.98
-0.48
10.35
19.56
26.63
31.43
34.03
34.59
33.27
30.26
25.89
20.73
15.54
11.17
8.35
7.45
8.38
10.6
13.31
15.77
17.46
18.16
17.92
16.87
15.06
12.48
9.13
5.09
0.58
-4.04
-8.44
-12.38
-15.77
-18.68
-21.3
-23.86
-26.56
-29.57
-32.95
-36.53
-39.86
-42.2
-42.68
-40.5
-35.29
-27.26
-17.3
-6.72
3.16
11.31
17.27
21.01
22.75
22.7
20.94
17.58
12.96
7.74
2.83
-0.93
-3.04
-3.5
-2.71
-1.22
0.54
2.31
3.98
5.45
6.55
7.1
7.01
6.33
5.28
4.14
3.1
2.23
1.41
0.43
-0.94
-2.9
-5.57
-8.91
-12.62
-16.07
-18.34
-18.38
-15.4
-9.19
-0.3
10.03
20.25
28.93
35.12
38.47
39.15
37.54
34.07
29.12
23.09
16.5
9.98
4.2
-0.38
-3.55
-5.45
-6.41
-6.76
-6.71
-6.34
-5.69
-4.91
-4.29
-4.2
-4.97
-6.73
-9.36
-12.56
-15.95
-19.2
-22.11
-24.64
-26.87
-29.09
-31.64
-34.86
-38.9
-43.44
-47.69
-50.47
-50.58
-47.23
-40.35
-30.63
-19.32
-7.8
2.73
11.49
18.08
22.34
24.22
23.8
21.38
17.43
12.71
8.06
4.28
1.89
1.09
1.66
3.07
4.68
5.95
6.66
6.89
6.95
7.1
7.34
7.38
6.72
4.98
2.04
-1.82
-6.02
-9.97
-13.29
-15.86
-17.9
-19.73
-21.69
-24.02
-26.82
-29.97
-33.03
-35.25
-35.69
-33.51
-28.28
-20.2
-10.15
0.64
10.87
19.51
25.98
30.13
32.05
32.01
30.34
27.47
23.88
20.11
16.66
13.95
12.2
11.45
11.49
11.96
12.46
12.67
12.49
12.01
11.42
10.88
10.37
9.71
8.66
7.06
4.98
2.66
0.46
-1.43
-3.0
-4.44
-6.02
-7.92
-10.23
-12.92
-15.96
-19.36
-23.03
-26.65
-29.55
-30.77
-29.36
-24.77
-17.11
-7.22
3.61
13.97
22.78
29.4
33.7
35.86
36.24
35.17
32.91
29.71
25.85
21.71
17.83
14.7
12.72
11.92
12.04
12.54
12.91
12.82
12.24
11.33
10.34
9.37
8.33
7.04
5.29
2.96
0.08
-3.23
-6.78
-10.34
-13.71
-16.73
-19.3
-21.42
-23.17
-24.74
-26.35
-28.3
-30.82
-34.01
-37.67
-41.22
-43.71
-44.03
-41.31
-35.24
-26.33
-15.73
-4.96
4.65
12.27
17.62
20.91
22.47
22.59
21.45
19.23
16.26
13.02
10.05
7.87
6.76
6.77
7.69
9.25
11.1
12.95
14.61
15.9
16.69
16.93
16.53
15.51
13.96
12.03
9.92
7.81
5.8
3.84
1.79
-0.46
-2.96
-5.57
-8.04
-10.09
-11.56
-12.55
-13.38
-14.58
-16.62
-19.73
-23.63
-27.51
-30.23
-30.67
-28.19
-22.81
-15.23
-6.52
2.23
10.2
16.91
22.16
25.82
27.78
28.0
26.58
23.88
20.47
16.97
13.94
11.71
10.43
10.07
10.51
11.58
13.01
14.48
15.67
16.33
16.38
15.91
15.09
14.01
12.63
10.78
8.34
5.34
2.01
-1.3
-4.33
-6.96
-9.26
-11.4
-13.56
-15.82
-18.22
-20.75
-23.4
-26.11
-28.62
-30.44
-30.9
-29.35
-25.41
-19.21
-11.4
-3.01
4.88
11.43
16.23
19.27
20.8
21.08
20.31
18.62
16.2
13.34
10.52
8.21
6.71
6.07
6.05
6.24
6.32
6.13
5.74
5.33
5.04
4.85
4.61
4.14
3.35
2.25
0.97
-0.36
-1.71
-3.16
-4.84
-6.79
-8.91
-10.94
-12.61
-13.73
-14.25
-14.33
-14.27
-14.41
-15.13
-16.73
-19.26
-22.39
-25.34
-27.03
-26.38
-22.77
-16.31
-7.85
1.28
9.77
16.73
21.81
25.08
26.8
27.18
26.32
24.28
21.24
17.58
13.84
10.57
8.2
6.99
6.92
7.82
9.33
11.06
12.61
13.69
14.1
13.76
12.77
11.29
9.53
7.63
5.68
3.67
1.57
-0.66
-2.95
-5.16
-7.15
-8.81
-10.16
-11.36
-12.64
-14.29
-16.53
-19.47
-23.02
-26.78
-30.01
-31.73
-30.99
-27.15
-20.25
-11.06
-0.88
8.89
17.13
23.27
27.28
29.43
30.05
29.4
27.62
24.91
21.59
18.13
15.07
12.84
11.6
11.29
11.59
12.17
12.71
12.99
12.85
12.05
10.32
7.37
3.05
-2.49
-8.79
-15.17
-20.9
-25.41
-28.44
-30.02
-30.49
-30.26
-29.79
-29.36
-29.06
-28.81
-28.48
-28.01
-27.53
-27.42
-28.13
-30.03
-33.15
-37.08
-40.92
-43.49
-43.6
-40.34
-33.44
-23.41
-11.39
1.09
12.57
21.95
28.67
32.69
34.34
34.04
32.27
29.43
25.9
22.03
18.26
14.98
12.56
11.17
10.78
11.13
11.89
12.79
13.7
14.59
15.43
16.09
16.3
15.74
14.19
11.67
8.46
4.97
1.65
-1.16
-3.33
-4.88
-6.0
-7.01
-8.25
-9.97
-12.27
-14.99
-17.82
-20.44
-22.6
-24.24
-25.53
-26.76
-28.32
-30.61
-33.82
-37.79
-41.86
-44.87
-45.48
-42.59
-35.82
-25.73
-13.65
-1.31
9.82
18.8
25.38
29.75
32.22
33.02
32.23
29.96
26.52
22.45
18.49
15.28
13.22
12.36
12.43
13.01
13.7
14.23
14.45
14.33
13.86
13.05
11.92
10.53
8.97
7.29
5.5
3.55
1.4
-0.94
-3.38
-5.74
-7.85
-9.6
-11.01
-12.23
-13.47
-14.9
-16.58
-18.43
-20.23
-21.78
-22.91
-23.58
-23.93
-24.31
-25.2
-27.17
-30.52
-35.1
-40.08
-44.08
-45.49
-43.09
-36.44
-26.2
-13.8
-1.0
10.74
20.52
28.01
33.22
36.21
37.06
35.86
32.97
28.98
24.72
20.94
18.15
16.53
15.95
16.15
16.84
17.82
18.98
20.22
21.45
22.5
23.18
23.27
22.61
21.15
19.1
16.79
14.57
12.68
11.09
9.53
7.66
5.26
2.39
-0.64
-3.38
-5.5
-6.9
-7.79
-8.57
-9.73
-11.63
-14.46
-18.1
-22.18
-26.0
-28.62
-29.04
-26.43
-20.48
-11.56
-0.66
10.8
21.39
30.01
36.1
39.56
40.63
39.6
36.83
32.68
27.57
22.05
16.71
12.06
8.47
6.03
4.62
3.98
3.78
3.78
3.77
3.66
3.39
2.89
2.12
1.03
-0.37
-2.0
-3.73
-5.46
-7.19
-9.01
-11.06
-13.43
-16.03
-18.64
-20.99
-22.83
-24.17
-25.18
-26.22
-27.71
-29.96
-33.07
-36.86
-40.72
-43.67
-44.53
-42.17
-36.0
-26.26
-14.06
-1.1
10.84
20.5
27.32
31.41
33.27
33.36
31.99
29.33
25.61
21.24
16.83
13.02
10.26
8.69
8.18
8.39
9.01
9.82
10.71
11.56
12.2
12.38
11.82
10.39
8.09
5.22
2.15
-0.78
-3.42
-5.84
-8.25
-10.87
-13.76
-16.79
-19.66
-22.12
-24.0
-25.37
-26.5
-27.77
-29.59
-32.23
-35.72
-39.69
-43.37
-45.6
-45.14
-41.08
-33.21
-22.19
-9.42
3.43
14.89
24.03
30.54
34.49
36.12
35.6
33.17
29.16
24.18
19.06
14.69
11.76
10.58
10.99
12.49
14.44
16.32
17.76
18.65
19.02
18.94
18.45
17.5
16.0
13.89
11.19
8.04
4.69
1.41
-1.62
-4.36
-6.89
-9.38
-11.97
-14.71
-17.5
-20.19
-22.61
-24.71
-26.57
-28.4
-30.47
-33.0
-36.09
-39.55
-42.87
-45.22
-45.64
-43.23
-37.53
-28.69
-17.48
-5.12
7.06
17.96
26.87
33.53
37.92
40.2
40.52
39.12
36.34
32.7
28.91
25.74
23.75
23.19
23.93
25.53
27.45
29.26
30.64
31.48
31.68
31.15
29.78
27.53
24.47
20.8
16.78
12.59
8.29
3.86
-0.75
-5.43
-9.92
-13.88
-17.0
-19.18
-20.6
-21.65
-22.86
-24.69
-27.45
-31.12
-35.41
-39.66
-42.99
-44.39
-42.97
-38.24
-30.27
-19.81
-8.07
3.54
13.8
21.91
27.59
30.98
32.45
32.4
31.2
29.17
26.67
24.16
22.14
21.02
21.01
21.98
23.5
24.98
25.89
25.86
24.73
22.48
19.15
14.79
9.46
3.38
-3.09
-9.55
-15.64
-21.29
-26.62
-31.99
-37.66
-43.72
-49.99
-56.06
-61.52
-66.09
-69.78
-72.84
-75.66
-78.6
-81.8
-85.0
-87.45
-88.1
-85.85
-79.98
-70.43
-57.92
-43.71
-29.23
-15.6
-3.49
6.96
15.8
23.13
28.83
32.69
34.54
34.44
32.77
30.19
27.49
25.41
24.43
24.67
25.94
27.82
29.91
31.9
33.66
35.2
36.51
37.51
37.99
37.73
36.58
34.6
32.08
29.41
26.93
24.75
22.68
20.38
17.54
14.08
10.18
6.31
2.95
0.42
-1.23
-2.21
-2.89
-3.75
-5.2
-7.54
-10.89
-15.14
-19.82
-24.1
-26.85
-26.88
-23.29
-15.77
-4.87
8.17
21.68
34.07
44.2
51.61
56.34
58.77
59.34
58.39
56.23
53.18
49.62
46.0
42.72
40.13
38.47
37.79
37.96
38.65
39.4
39.72
39.22
37.74
35.36
32.37
29.01
25.55
22.26
19.26
16.47
13.71
10.83
7.77
4.6
1.41
-1.56
-3.96
-5.65
-6.83
-7.99
-9.72
-12.41
-16.0
-20.24
-24.26
-26.88
-27.4
-26.07
-24.03
-22.79
-23.56
-26.77
-32.52
-39.32
-44.48
-45.54
-41.53
-32.92
-21.06
-7.43
6.88
20.23
33.33
49.32
71.4
100.58
135.24
171.62
204.59
228.72
237.41
228.5
205.24
172.95
135.49
94.6
50.41
1.97
-52.17
-115.57
-187.01
-258.88
-321.05
-365.21
-386.48
-383.82
-360.16
-301.41
-215.6
-129.66
-64.63
-21.67
8.26
32.47
52.19
66.45
70.98
60.83
37.56
9.46
-13.84
-26.5
-27.59
-19.79
-6.52
8.68
20.71
28.01
33.3
40.38
50.89
64.19
78.69
88.01
89.04
81.68
70.07
59.57
53.3
51.07
50.82
50.39
48.27
44.36
38.1
29.37
18.83
7.54
-3.59
-13.94
-23.0
-31.63
-39.71
-46.97
-52.72
-55.96
-55.96
-52.78
-47.38
-41.29
-36.03
-32.16
-29.55
-27.85
-26.85
-26.44
-26.62
-27.5
-29.02
-31.03
-32.96
-34.15
-34.38
-33.94
-33.24
-32.54
-31.75
-30.67
-29.19
-27.19
-24.23
-20.36
-16.03
-11.59
-7.13
-2.29
3.09
8.81
14.58
20.89
27.79
34.61
40.46
44.5
46.58
46.8
45.75
44.77
46.66
52.98
62.9
73.56
81.08
82.64
77.04
65.4
44.14
16.39
-10.32
-30.15
-40.94
-47.29
-51.88
-55.22
-57.36
-58.03
-56.67
-54.04
-51.73
-50.58
-50.12
-48.51
-44.57
-38.57
-31.94
-25.53
-19.97
-15.24
-10.42
-4.37
3.73
13.07
21.52
26.88
28.52
27.01
23.69
20.03
16.92
14.6
12.46
9.55
5.16
-0.47
-6.52
-12.25
-17.16
-21.05
-23.68
-24.82
-24.24
-21.94
-17.7
-11.39
-3.19
6.22
15.76
24.35
31.28
36.52
40.36
43.9
48.75
56.04
65.72
76.71
87.56
97.0
104.38
108.29
108.8
107.8
107.82
110.53
116.59
125.89
137.72
151.05
162.05
169.14
174.14
179.6
185.71
190.0
188.79
178.78
158.38
123.87
76.59
23.74
-26.6
-70.45
-108.16
-142.48
-176.93
-214.8
-264.08
-326.76
-395.87
-460.0
-509.49
-538.24
-543.67
-526.74
-454.67
-328.46
-185.23
-64.87
18.46
70.31
101.43
120.69
133.83
144.01
146.86
140.31
127.2
111.44
94.14
74.94
54.78
36.73
23.28
12.18
2.54
-3.52
-3.64
1.8
10.48
19.95
28.7
36.22
40.29
41.33
42.48
47.01
55.26
65.34
74.87
82.16
86.32
85.44
78.34
65.26
47.62
27.39
7.35
-9.42
-20.61
-25.81
-27.07
-27.16
-28.13
-30.17
-32.6
-34.29
-34.41
-32.82
-30.16
-27.38
-25.22
-23.81
-22.82
-22.24
-21.99
-21.86
-21.45
-20.39
-18.28
-14.9
-9.85
-3.07
4.45
12.06
18.53
23.09
25.29
25.08
22.9
20.21
18.56
17.8
17.74
18.35
19.28
19.96
19.98
19.35
19.47
21.99
26.74
33.89
44.12
57.29
72.31
87.33
95.1
90.72
82.43
74.0
63.51
50.81
36.07
19.64
2.19
-15.29
-30.9
-43.09
-52.74
-60.71
-66.94
-71.34
-73.62
-73.47
-70.77
-65.17
-56.91
-47.96
-39.84
-32.92
-27.29
-22.85
-19.51
-17.25
-15.67
-14.37
-13.78
-13.98
-14.51
-15.0
-15.22
-15.0
-14.31
-13.03
-11.24
-9.57
-8.53
-8.23
-8.61
-9.45
-10.46
-11.45
-12.24
-12.74
-13.07
-13.27
-13.25
-12.99
-12.6
-12.33
-12.5
-13.33
-14.8
-16.52
-17.84
-17.91
-16.02
-11.86
-5.72
1.72
9.53
16.83
23.02
27.83
31.49
34.25
36.23
37.27
37.17
35.86
33.45
30.3
26.93
24.26
22.96
23.16
24.36
25.75
26.54
26.17
24.5
21.88
19.63
19.03
20.58
23.83
27.73
31.17
33.25
33.66
32.75
32.15
33.56
37.81
44.39
51.75
57.78
60.38
58.01
46.09
24.07
-3.66
-29.79
-48.69
-58.11
-58.2
-50.33
-36.91
-21.6
-8.29
-0.77
-1.17
-9.12
-21.4
-33.46
-41.91
-46.07
-47.43
-47.25
-45.84
-41.55
-33.05
-20.3
-5.15
9.18
19.17
22.74
20.38
13.51
5.61
-0.77
-4.97
-8.17
-11.46
-15.12
-18.28
-19.28
-16.79
-10.47
-1.62
7.16
13.38
15.32
11.92
4.01
-5.46
-12.39
-13.07
-6.46
4.62
14.78
18.56
13.17
0.37
-14.23
-24.55
-26.46
-19.93
-9.37
-0.88
0.78
-5.91
-18.94
-34.26
-47.92
-57.22
-58.16
-49.96
-33.93
-12.41
11.63
34.62
52.37
61.08
58.94
47.09
28.95
9.55
-6.36
-16.17
-19.8
-18.95
-16.29
-14.32
-14.45
-17.18
-21.87
-27.01
-30.85
-31.57
-28.03
-19.95
-7.93
6.72
22.04
35.3
44.03
47.16
45.71
41.98
38.55
36.99
37.6
39.39
41.08
42.08
40.63
36.35
29.2
19.05
5.69
-9.6
-23.93
-33.73
-36.36
-31.71
-22.03
-11.45
-2.11
5.46
12.38
20.01
28.72
37.48
44.12
46.45
43.01
33.95
19.66
2.57
-14.4
-28.86
-39.23
-44.88
-46.23
-44.57
-41.4
-38.16
-35.7
-34.38
-33.84
-32.66
-28.84
-20.82
-8.29
7.86
25.48
41.75
53.77
58.06
52.87
41.52
30.11
22.48
18.7
16.52
13.78
9.68
4.46
-0.14
-2.75
-3.48
-3.81
-5.53
-9.86
-17.19
-27.57
-38.73
-49.17
-57.76
-64.09
-68.4
-71.05
-72.27
-72.19
-70.89
-68.32
-64.46
-59.27
-53.06
-46.59
-40.58
-35.32
-30.36
-24.61
-16.72
-5.92
7.54
22.13
35.41
45.09
49.93
50.11
46.96
42.22
37.13
32.2
27.27
22.08
16.78
12.2
9.46
9.43
12.26
17.17
22.92
28.3
32.57
35.63
37.83
39.64
41.31
42.84
43.97
44.43
44.12
43.02
41.27
39.02
36.37
33.43
30.35
27.39
24.87
23.11
22.3
22.38
23.1
24.06
24.87
25.26
25.09
24.38
23.21
21.74
20.15
18.66
17.41
16.44
15.65
14.77
13.5
11.54
8.73
5.12
0.91
-3.81
-8.89
-13.97
-18.76
-23.03
-26.64
-29.43
-31.29
-32.19
-32.45
-32.38
-32.13
-31.78
-31.53
-31.61
-32.12
-32.88
-33.36
-33.3
-32.0
-28.34
-21.48
-11.29
1.67
16.5
32.25
47.94
61.22
70.87
77.33
81.66
84.29
85.17
84.31
82.09
79.28
73.71
65.14
55.93
48.68
43.79
39.92
35.4
29.07
20.48
4.69
-19.71
-49.2
-78.93
-106.67
-132.88
-159.16
-187.33
-219.02
-261.26
-315.16
-373.24
-424.42
-460.34
-476.74
-472.76
-450.18
-373.29
-242.28
-93.8
32.18
120.43
174.34
201.95
210.07
204.21
190.0
167.51
141.15
120.05
111.76
116.62
129.02
141.78
149.68
150.81
141.35
122.28
99.56
79.51
64.81
55.01
48.78
45.11
43.45
40.24
33.81
25.42
17.58
11.68
8.2
7.45
9.69
14.7
20.06
23.75
25.17
24.6
22.45
19.31
16.19
14.07
13.5
13.74
13.9
13.42
12.2
10.36
8.21
6.28
5.02
4.54
4.49
4.11
2.43
-1.44
-7.94
-17.02
-27.26
-36.35
-41.76
-41.75
-36.1
-26.35
-15.12
-5.19
1.48
4.14
3.05
-0.97
-6.82
-13.18
-18.53
-21.28
-20.25
-15.19
-6.99
2.47
11.13
17.44
20.87
21.79
20.97
19.12
16.67
13.8
10.65
7.49
4.73
2.73
1.68
1.48
1.78
2.17
2.42
2.49
2.57
2.84
3.38
4.01
4.39
4.2
3.29
1.79
0.06
-1.51
-2.58
-3.06
-3.06
-2.87
-2.88
-3.39
-4.61
-6.46
-8.64
-10.76
-12.41
-13.41
-13.87
-14.17
-14.77
-16.01
-18.05
-20.73
-23.66
-26.29
-28.0
-28.16
-26.33
-22.28
-16.21
-8.7
-0.57
7.26
14.04
19.35
23.13
25.55
26.88
27.3
26.93
25.86
24.24
22.32
20.41
18.78
17.58
16.79
16.31
16.0
15.8
15.69
15.72
15.91
16.19
16.45
16.51
16.22
15.46
14.18
12.37
10.14
7.7
5.3
3.15
1.35
-0.19
-1.6
-3.06
-4.63
-6.22
-7.72
-9.02
-10.12
-11.13
-12.16
-13.33
-14.66
-16.18
-17.94
-19.95
-22.14
-24.27
-25.86
-26.32
-25.12
-22.01
-17.12
-11.01
-4.49
1.64
6.73
10.51
13.03
14.54
15.36
15.74
15.77
15.42
14.66
13.53
12.16
10.82
9.78
9.25
9.29
9.82
10.7
11.75
12.86
13.98
15.02
15.89
16.45
16.56
16.23
15.55
14.74
13.98
13.36
12.88
12.43
11.97
11.46
10.94
10.39
9.69
8.67
7.19
5.24
3.02
0.84
-1.03
-2.52
-3.82
-5.27
-7.17
-9.52
-11.98
-13.93
-14.75
-14.03
-11.82
-8.5
-4.67
-0.82
2.71
5.85
8.63
11.02
12.98
14.38
15.18
15.4
15.1
14.32
13.01
11.13
8.66
5.76
2.76
0.11
-1.78
-2.63
-2.38
-1.18
0.61
2.5
3.91
4.28
3.28
0.82
-2.79
-6.92
-10.8
-13.74
-15.33
-15.52
-14.65
-13.29
-11.98
-11.12
-10.82
-10.94
-11.24
-11.5
-11.65
-11.76
-11.99
-12.48
-13.29
-14.36
-15.47
-16.3
-16.52
-15.79
-13.92
-10.9
-6.93
-2.36
2.37
6.9
10.88
14.07
16.31
17.47
17.59
16.86
15.63
14.31
13.26
12.7
12.63
12.92
13.35
13.74
13.91
13.75
13.16
12.04
10.38
8.27
5.86
3.38
1.04
-1.0
-2.64
-3.81
-4.55
-4.95
-5.19
-5.54
-6.26
-7.51
-9.29
-11.36
-13.41
-15.14
-16.38
-17.22
-17.92
-18.81
-20.14
-21.99
-24.25
-26.6
-28.6
-29.8
-29.77
-28.25
-25.22
-20.92
-15.8
-10.45
-5.43
-1.14
2.24
4.72
6.42
7.5
8.03
8.05
7.61
6.85
5.95
5.14
4.58
4.33
4.38
4.69
5.22
5.92
6.75
7.64
8.47
9.12
9.48
9.49
9.15
8.51
7.69
6.83
6.03
5.38
4.88
4.45
4.01
3.48
2.86
2.2
1.54
0.87
0.12
-0.76
-1.73
-2.65
-3.34
-3.65
-3.59
-3.32
-3.11
-3.26
-3.99
-5.39
-7.43
-9.95
-12.63
-15.02
-16.55
-16.68
-15.06
-11.68
-6.94
-1.5
3.88
8.6
12.35
15.09
17.0
18.28
19.02
19.2
18.67
17.26
14.96
11.94
8.63
5.54
3.15
1.74
1.28
1.55
2.19
2.86
3.37
3.64
3.62
3.26
2.53
1.4
-0.03
-1.56
-2.93
-3.91
-4.41
-4.5
-4.39
-4.33
-4.51
-4.96
-5.57
-6.13
-6.49
-6.6
-6.6
-6.72
-7.21
-8.14
-9.38
-10.64
-11.63
-12.23
-12.54
-12.85
-13.5
-14.7
-16.45
-18.57
-20.74
-22.57
-23.7
-23.73
-22.35
-19.37
-14.85
-9.16
-2.95
3.06
8.21
12.12
14.74
16.22
16.84
16.86
16.5
15.91
15.21
14.49
13.83
13.22
12.67
12.21
11.92
11.87
12.1
12.52
12.95
13.19
13.1
12.66
11.95
11.06
10.04
8.9
7.61
6.21
4.78
3.44
2.29
1.34
0.46
-0.46
-1.48
-2.57
-3.64
-4.6
-5.44
-6.2
-7.02
-8.02
-9.26
-10.66
-12.09
-13.39
-14.5
-15.43
-16.33
-17.42
-18.87
-20.7
-22.66
-24.22
-24.73
-23.66
-20.72
-16.02
-10.11
-3.82
2.17
7.5
12.19
16.37
20.12
23.4
26.06
27.68
27.85
26.47
24.0
21.26
19.03
17.8
17.76
18.8
20.3
21.33
21.22
20.0
18.23
16.49
15.23
14.71
14.98
15.43
14.79
11.74
5.52
-4.19
-17.39
-33.69
-52.12
-68.23
-76.64
-74.62
-64.07
-49.32
-33.95
-19.6
-6.55
5.43
15.81
24.52
30.76
33.97
34.52
33.28
30.99
28.01
24.38
19.89
14.38
7.88
1.11
-4.68
-8.48
-9.99
-9.59
-7.69
-4.55
-0.34
4.31
8.31
9.98
7.56
0.13
-11.49
-23.08
-29.95
-30.18
-26.38
-23.34
-24.52
-30.36
-38.55
-45.63
-49.05
-48.69
-46.38
-44.01
-41.54
-36.86
-27.62
-13.51
2.74
16.48
23.74
24.03
21.25
21.51
29.28
44.13
60.95
72.58
73.6
63.17
45.27
26.46
12.47
5.65
4.5
5.38
5.0
2.13
-1.74
-3.69
-1.32
5.55
14.48
21.5
22.97
16.89
4.11
-11.41
-24.72
-32.45
-33.82
-30.09
-23.3
-16.18
-9.03
-2.23
3.6
7.56
9.0
8.03
5.47
2.48
-0.02
-1.2
-1.14
-0.75
-1.58
-5.36
-13.34
-25.51
-40.19
-54.01
-62.65
-62.64
-52.55
-33.74
-9.73
15.25
37.92
56.73
71.57
82.9
90.54
93.57
90.96
82.51
69.38
53.94
38.88
26.31
17.39
12.4
11.26
13.84
19.88
28.66
38.82
48.43
55.61
59.18
59.18
56.88
54.44
54.06
57.37
64.98
76.57
91.11
107.27
123.66
139.08
152.8
164.74
175.46
185.9
196.62
207.14
215.58
218.97
214.31
199.77
175.56
143.88
108.02
71.1
34.92
-0.45
-36.42
-74.85
-116.91
-162.09
-207.87
-250.32
-285.25
-309.72
-323.07
-327.13
-325.46
-322.03
-319.94
-320.59
-323.58
-326.93
-327.64
-322.32
-307.96
-282.96
-247.95
-206.24
-163.24
-124.85
-95.33
-75.55
-62.53
-50.63
-33.91
-8.68
25.15
64.22
103.18
136.7
160.91
174.07
176.32
169.1
154.68
135.77
115.26
95.81
79.45
67.15
58.85
53.65
50.37
47.93
45.76
43.85
42.71
43.23
46.3
52.47
61.53
72.37
83.19
92.03
97.5
99.2
97.89
95.02
92.07
89.71
87.45
83.74
76.57
64.39
46.82
24.86
0.59
-23.58
-45.7
-64.81
-81.06
-95.39
-108.89
-122.28
-135.51
-147.89
-158.31
-165.84
-169.99
-170.89
-169.04
-165.06
-159.42
-152.5
-144.74
-136.86
-129.89
-124.92
-122.79
-123.82
-127.74
-133.65
-140.06
-144.95
-145.96
-140.97
-128.74
-109.43
-84.69
-57.06
-29.14
-2.79
21.1
42.35
60.93
76.64
88.96
97.38
101.7
102.22
99.65
94.98
89.24
83.45
78.47
74.94
73.2
73.22
74.65
76.94
79.44
81.55
82.82
83.0
81.99
79.86
76.81
73.1
69.09
65.18
61.64
58.55
55.72
52.82
49.54
45.66
41.18
36.2
30.88
25.46
20.29
15.88
12.7
11.13
11.27
12.93
15.66
18.97
22.38
25.48
27.83
28.85
28.05
25.08
19.95
13.03
5.0
-3.41
-11.41
-18.44
-24.24
-28.73
-31.84
-33.38
-33.15
-30.89
-26.53
-19.99
-11.65
-2.4
6.6
14.31
20.04
23.21
23.77
21.87
18.45
14.48
10.67
7.43
5.11
3.91
3.37
3.19
2.85
2.8
3.36
4.3
5.09
5.3
4.88
3.53
2.08
1.62
4.34
11.57
22.94
36.9
51.73
66.66
81.38
97.84
110.26
115.1
113.67
109.95
105.55
98.56
90.97
78.61
60.28
37.32
13.76
-6.87
-23.35
-34.33
-38.43
-35.07
-27.27
-18.85
-13.04
-10.18
-9.68
-11.31
-14.6
-19.7
-27.27
-38.87
-55.38
-78.09
-104.74
-133.82
-163.4
-190.58
-211.81
-223.58
-224.17
-213.44
-193.54
-167.99
-140.83
-115.05
-92.19
-72.93
-57.56
-46.47
-39.04
-33.75
-28.69
-21.99
-12.39
-0.47
11.31
19.83
22.66
20.21
14.55
7.25
0.6
-2.34
1.26
13.88
36.8
68.65
106.01
141.46
163.11
163.1
141.26
103.47
59.29
17.87
-15.3
-36.59
-45.95
-48.9
-46.92
-37.28
-18.48
7.97
37.48
64.32
87.77
109.16
125.62
138.82
153.53
171.79
192.76
213.96
210.75
171.81
133.95
109.88
91.94
79.21
70.8
65.22
60.54
54.9
50.21
47.58
41.7
30.86
17.18
2.06
-13.69
-29.59
-44.69
-55.56
-60.41
-62.95
-65.04
-66.36
-67.41
-68.96
-71.64
-75.13
-77.8
-79.37
-81.63
-83.73
-82.37
-74.35
-57.51
-31.78
0.97
36.58
68.17
89.61
98.76
97.19
88.44
76.67
59.94
41.26
29.7
23.07
15.81
4.35
-13.83
-39.87
-72.67
-108.39
-140.55
-162.75
-171.98
-166.44
-146.87
-117.48
-84.76
-55.27
-33.57
-21.18
-17.3
-21.46
-30.95
-41.97
-51.15
-55.66
-52.99
-40.78
-17.86
19.66
65.6
108.31
139.0
155.36
158.97
152.21
140.83
125.24
106.42
85.3
64.35
46.44
32.67
23.29
17.1
12.44
7.67
2.61
-3.02
-8.7
-13.68
-17.89
-22.12
-27.71
-35.77
-47.45
-62.79
-81.59
-102.25
-121.69
-136.08
-142.01
-137.56
-122.93
-100.73
-74.72
-49.19
-27.46
-11.16
-0.44
5.54
8.01
8.46
8.3
9.04
11.86
17.48
26.02
36.87
48.92
60.81
71.33
79.63
85.34
88.57
89.7
89.27
87.74
85.32
81.97
77.56
72.18
66.29
60.66
56.01
52.66
50.31
48.24
45.64
42.02
37.47
32.55
28.0
24.43
22.05
20.48
18.76
15.46
8.99
-1.91
-17.68
-37.59
-59.85
-81.99
-101.64
-117.03
-127.33
-132.55
-133.29
-130.37
-124.68
-117.07
-108.29
-99.03
-89.81
-81.04
-72.96
-65.6
-58.81
-52.43
-46.41
-41.04
-36.93
-34.76
-34.85
-36.78
-39.33
-40.83
-39.66
-34.96
-26.83
-16.22
-4.59
6.61
16.24
23.61
28.47
30.92
31.28
29.92
27.22
23.55
19.38
15.38
12.3
10.76
10.99
12.63
14.87
16.79
17.8
17.83
17.28
16.69
16.37
16.31
16.21
15.76
14.8
13.44
11.94
10.55
9.44
8.62
8.06
7.71
7.45
7.18
6.73
5.92
4.64
2.89
0.76
-1.6
-4.03
-6.42
-8.63
-10.55
-12.12
-13.38
-14.54
-15.93
-17.88
-20.45
-23.37
-25.93
-27.24
-26.49
-23.3
-17.86
-10.83
-3.17
4.25
10.82
16.25
20.5
23.65
25.76
26.86
27.03
26.39
25.16
23.59
21.93
20.36
19.07
18.23
18.01
18.56
19.88
21.77
23.85
25.61
26.61
26.66
25.86
24.55
23.13
21.96
21.19
20.78
20.51
20.07
19.2
17.79
15.87
13.61
11.22
8.84
6.44
3.74
0.36
-4.07
-9.65
-16.22
-23.42
-30.76
-37.82
-44.38
-50.59
-56.68
-62.68
-68.21
-72.48
-74.53
-73.43
-68.59
-60.13
-49.11
-37.09
-25.46
-15.03
-6.0
1.67
8.32
14.4
20.18
25.36
29.44
32.17
33.62
33.91
32.85
30.66
27.97
25.61
23.66
21.7
19.23
15.82
11.13
4.69
-3.09
-10.98
-14.7
-11.35
-1.89
9.46
17.18
20.34
18.96
13.84
6.46
-1.72
-9.88
-17.57
-24.2
-26.89
-24.07
-17.26
-9.38
-2.42
3.18
7.49
10.75
13.29
15.36
16.71
16.95
15.91
13.99
11.94
10.25
9.18
8.82
9.22
10.09
11.11
12.38
13.65
14.98
16.23
17.16
17.52
17.25
16.32
14.81
13.05
11.52
10.64
10.48
10.78
11.26
11.68
12.05
12.73
14.57
18.71
26.26
37.67
52.41
69.02
85.5
99.89
110.89
118.11
121.86
122.86
121.73
118.78
114.11
107.75
99.77
90.33
79.64
67.9
55.38
42.33
29.01
15.68
2.54
-10.28
-22.63
-34.33
-45.13
-54.83
-63.31
-70.61
-76.83
-82.09
-86.48
-90.05
-92.73
-94.35
-94.56
-92.88
-88.96
-82.7
-74.51
-65.2
-55.82
-47.28
-40.1
-34.32
-29.66
-25.78
-22.45
-19.65
-17.39
-15.65
-14.29
-13.1
-11.89
-10.57
-9.18
-7.86
-6.75
-5.94
-5.43
-5.15
-5.07
-5.17
-5.44
-5.89
-6.43
-6.98
-7.46
-7.88
-8.28
-8.69
-9.08
-9.35
-9.41
-9.25
-8.97
-8.8
-8.9
-9.34
-9.97
-10.56
-10.9
-10.97
-10.95
-11.17
-11.87
-13.14
-14.79
-16.47
-17.87
-18.85
-19.51
-20.15
-21.13
-22.71
-24.96
-27.71
-30.55
-32.89
-34.04
-33.44
-30.81
-26.35
-20.69
-14.74
-9.37
-5.18
-2.44
-1.01
-0.6
-0.88
-1.55
-2.35
-3.04
-3.43
-3.38
-2.87
-1.94
-0.69
0.78
2.43
4.19
5.97
7.63
9.05
10.14
10.85
11.18
11.12
10.59
9.55
8.04
6.21
4.34
2.73
1.6
0.99
0.76
0.66
0.47
0.02
-0.74
-1.78
-3.02
-4.34
-5.63
-6.73
-7.53
-8.0
-8.19
-8.24
-8.36
-8.8
-9.78
-11.44
-13.74
-16.38
-18.76
-20.12
-19.72
-17.12
-12.37
-6.04
1.0
7.85
13.78
18.42
21.69
23.72
24.77
25.09
24.96
24.6
24.23
23.91
23.72
23.63
23.62
23.69
23.81
23.92
23.92
23.68
23.09
22.13
20.87
19.49
18.15
16.94
15.85
14.75
13.47
11.91
10.03
7.9
5.58
3.2
0.82
-1.48
-3.66
-5.64
-7.35
-8.76
-9.92
-10.98
-12.11
-13.42
-14.87
-16.37
-17.77
-19.04
-20.3
-21.79
-23.82
-26.52
-29.72
-32.9
-35.26
-35.97
-34.39
-30.32
-24.07
-16.36
-8.18
-0.48
6.09
11.2
14.85
17.25
18.65
19.21
19.12
18.55
17.71
16.87
16.23
15.91
15.89
16.09
16.41
16.81
17.28
17.81
18.36
18.8
19.05
19.06
18.8
18.32
17.62
16.68
15.48
14.08
12.58
11.13
9.81
8.56
7.27
5.82
4.18
2.43
0.81
-0.49
-1.35
-1.89
-2.35
-3.08
-4.35
-6.24
-8.61
-11.22
-13.82
-16.25
-18.53
-20.76
-23.06
-25.55
-28.33
-31.49
-35.07
-38.94
-42.68
-45.55
-46.63
-45.14
-40.8
-33.98
-25.65
-17.05
-9.3
-3.11
1.31
4.1
5.57
5.95
5.38
3.91
1.62
-1.25
-4.31
-7.15
-9.39
-10.89
-11.81
-12.53
-13.48
-15.02
-17.21
-19.91
-22.78
-25.5
-27.86
-29.79
-31.43
-32.93
-34.42
-35.88
-37.15
-37.96
-38.1
-37.53
-36.4
-35.07
-33.93
-33.23
-32.94
-32.8
-32.44
-31.62
-30.35
-28.86
-27.49
-26.57
-26.25
-26.51
-27.17
-27.91
-28.38
-28.21
-27.1
-24.89
-21.69
-17.94
-14.35
-11.75
-10.7
-11.28
-12.82
-14.1
-13.69
-10.4
-3.78
5.83
17.42
29.64
41.24
51.33
59.48
65.62
69.93
72.66
74.09
74.47
74.09
73.3
72.5
72.04
72.16
72.88
74.12
75.7
77.46
79.35
81.37
83.53
85.76
87.97
90.1
92.27
94.69
97.5
100.67
103.95
106.94
109.27
110.76
111.45
111.81
112.06
112.06
111.47
110.04
107.89
105.41
103.07
101.09
99.87
99.18
98.25
96.2
92.33
86.3
77.76
66.34
51.68
34.53
15.63
-4.41
-24.9
-44.71
-62.32
-76.21
-85.23
-89.08
-87.43
-81.63
-74.68
-69.72
-68.34
-69.59
-70.36
-66.64
-62.46
-59.03
-55.11
-49.38
-42.89
-38.5
-39.13
-46.86
-62.0
-82.75
-103.89
-119.77
-126.62
-124.02
-114.77
-103.38
-94.48
-89.79
-89.14
-90.0
-89.89
-87.58
-83.19
-77.56
-71.4
-65.28
-59.45
-53.89
-47.91
-41.0
-33.27
-25.04
-17.91
-12.71
-9.85
-9.11
-9.86
-10.86
-11.23
-10.9
-10.66
-11.64
-14.5
-19.28
-25.25
-31.43
-36.88
-41.14
-44.3
-46.62
-48.14
-48.45
-47.04
-43.66
-38.6
-32.51
-26.13
-19.93
-13.88
-7.67
-0.77
7.08
15.79
24.9
33.67
41.28
47.01
50.44
51.62
51.17
50.04
49.26
49.53
51.07
53.58
56.54
59.46
62.07
64.3
66.13
67.44
67.97
67.46
65.77
63.09
59.84
56.63
53.96
52.1
50.96
50.16
49.21
47.72
45.54
42.79
39.73
36.56
33.28
29.65
25.25
19.68
12.75
4.51
-4.67
-14.28
-23.61
-31.83
-38.08
-41.56
-41.68
-38.35
-32.02
-23.71
-14.71
-6.34
0.4
4.96
7.29
7.65
6.47
4.14
1.0
-2.67
-6.54
-10.19
-13.14
-14.94
-15.32
-14.27
-12.03
-9.08
-5.95
-3.2
-1.27
-0.47
-0.87
-2.34
-4.6
-7.27
-10.03
-12.68
-15.17
-17.49
-19.67
-21.65
-23.36
-24.73
-25.83
-26.75
-27.7
-28.79
-30.04
-31.36
-32.6
-33.74
-34.9
-36.33
-38.28
-40.79
-43.58
-46.02
-47.28
-46.56
-43.34
-37.44
-29.13
-18.99
-7.78
3.6
14.26
23.43
30.56
35.41
38.06
38.79
37.96
35.95
33.1
29.78
26.45
23.55
21.42
20.22
19.91
20.24
20.95
21.83
22.75
23.62
24.35
24.77
24.7
24.0
22.66
20.79
18.56
16.18
13.83
11.61
9.61
7.89
6.51
5.5
4.82
4.39
4.03
3.6
2.99
2.17
1.19
0.14
-0.91
-1.91
-2.93
-4.1
-5.64
-7.81
-10.7
-14.21
-17.86
-20.92
-22.55
-22.14
-19.46
-14.81
-8.83
-2.32
4.02
9.67
14.38
18.01
20.53
21.98
22.46
22.15
21.26
20.04
18.71
17.47
16.51
15.98
15.95
16.39
17.18
18.14
19.07
19.83
20.34
20.55
20.41
19.87
18.91
17.57
15.97
14.25
12.55
10.95
9.46
8.04
6.66
5.27
3.86
2.39
0.85
-0.78
-2.5
-4.3
-6.1
-7.86
-9.48
-10.95
-12.3
-13.66
-15.21
-17.07
-19.2
-21.28
-22.8
-23.19
-22.0
-19.13
-14.84
-9.68
-4.32
0.65
4.81
7.96
10.11
11.38
11.93
11.89
11.38
10.47
9.25
7.83
6.37
5.09
4.14
3.64
3.58
3.86
4.36
4.98
5.64
6.27
6.76
6.97
6.72
5.91
4.54
2.74
0.73
-1.29
-3.17
-4.87
-6.39
-7.77
-9.03
-10.21
-11.34
-12.4
-13.41
-14.42
-15.55
-16.97
-18.82
-21.06
-23.38
-25.21
-25.89
-24.89
-22.05
-17.62
-12.2
-6.49
-1.13
3.44
7.03
9.63
11.33
12.24
12.49
12.17
11.41
10.34
9.13
7.95
6.95
6.24
5.89
5.86
6.06
6.36
6.6
6.69
6.59
6.3
5.87
5.33
4.63
3.66
2.27
0.43
-1.74
-4.0
-6.03
-7.63
-8.79
-9.69
-10.64
-11.93
-13.71
-15.94
-18.41
-20.78
-22.63
-23.61
-23.43
-21.96
-19.17
-15.24
-10.48
-5.31
-0.18
4.47
8.31
11.16
12.99
13.89
14.01
13.53
12.59
11.3
9.82
8.38
7.23
6.55
6.4
6.67
7.12
7.54
7.79
7.89
7.93
7.98
8.02
7.9
7.39
6.33
4.7
2.69
0.6
-1.28
-2.74
-3.81
-4.65
-5.49
-6.52
-7.82
-9.38
-11.12
-12.89
-14.45
-15.39
-15.21
-13.46
-9.94
-4.87
1.1
7.14
12.46
16.6
19.49
21.32
22.42
23.02
23.22
22.98
22.24
21.0
19.35
17.46
15.51
13.67
12.0
10.47
8.94
7.27
5.31
3.04
0.51
-2.12
-4.67
-7.02
-9.16
-11.16
-13.1
-15.05
-17.01
-18.95
-20.85
-22.74
-24.66
-26.66
-28.67
-30.48
-31.74
-32.08
-31.18
-28.9
-25.34
-20.81
-15.79
-10.78
-6.21
-2.34
0.73
3.02
4.58
5.44
5.62
5.15
4.14
2.76
1.23
-0.19
-1.35
-2.17
-2.67
-2.93
-2.97
-2.88
-2.78
-2.9
-3.46
-4.66
-6.54
-9.03
-11.9
-14.84
-17.51
-19.75
-21.52
-22.92
-24.09
-25.21
-26.41
-27.81
-29.27
-30.64
-31.71
-32.24
-32.02
-30.75
-28.29
-24.6
-19.83
-13.9
-6.82
1.19
9.74
18.31
26.45
33.69
39.71
44.46
48.92
54.05
60.22
67.05
73.73
79.48
83.83
86.6
87.83
88.64
89.73
91.0
91.9
92.33
93.04
94.92
98.1
101.58
104.84
106.96
106.93
104.36
100.1
95.86
92.83
90.62
78.67
50.98
9.6
-36.01
-75.84
-104.48
-121.4
-129.41
-132.55
-134.24
-134.8
-133.26
-129.03
-122.82
-116.14
-110.22
-105.24
-100.29
-93.81
-83.53
-68.66
-50.72
-32.94
-18.65
-9.72
-6.3
-7.15
-10.32
-13.31
-14.34
-12.98
-9.85
-6.02
-2.41
0.46
2.28
2.9
2.6
1.79
0.75
-0.27
-1.0
-1.19
-0.8
-0.08
0.54
0.73
0.4
-0.39
-1.31
-1.97
-1.99
-1.21
0.23
1.94
3.4
4.22
4.33
4.12
4.23
5.25
7.43
10.54
14.05
17.35
20.09
21.84
22.46
22.02
20.69
18.74
16.48
14.32
12.72
12.07
12.59
14.3
16.95
20.13
23.35
26.19
28.37
29.86
30.77
31.27
31.47
31.3
30.63
29.43
28.0
26.98
27.07
28.76
31.96
36.09
40.29
43.78
46.23
47.79
49.01
50.5
52.67
55.6
59.11
62.87
66.52
69.86
72.8
75.37
77.65
79.66
81.28
82.18
81.81
79.41
74.22
65.67
53.59
38.38
20.94
2.57
-15.32
-31.52
-45.15
-55.75
-63.16
-67.45
-68.86
-67.79
-64.77
-60.42
-55.31
-49.78
-43.95
-37.67
-30.75
-23.05
-14.7
-6.05
2.3
9.74
15.67
19.6
21.17
20.25
16.93
11.55
4.56
-3.59
-12.64
-22.48
-33.07
-44.19
-55.26
-65.4
-73.64
-79.27
-82.04
-82.28
-80.65
-77.95
-74.81
-71.7
-68.9
-66.64
-65.05
-64.11
-63.59
-63.01
-61.84
-59.81
-57.09
-54.31
-52.35
-51.9
-53.1
-55.5
-58.25
-60.53
-61.97
-62.79
-63.58
-64.93
-67.05
-69.64
-72.02
-73.46
-73.44
-71.81
-68.71
-64.38
-59.07
-53.03
-46.49
-39.87
-33.51
-27.37
-20.71
-12.08
-0.12
15.45
32.98
49.05
59.62
61.69
54.52
39.63
19.86
-1.9
-23.56
-43.8
-61.55
-75.67
-85.07
-89.33
-89.07
-85.72
-80.83
-75.35
-69.54
-63.36
-57.12
-51.59
-47.72
-46.16
-46.94
-49.62
-53.64
-58.48
-63.63
-68.31
-71.33
-71.26
-67.04
-58.4
-46.12
-31.77
-17.07
-3.34
8.78
19.35
28.73
37.29
45.18
52.35
58.69
64.19
69.04
73.54
77.98
82.45
86.75
90.47
93.12
94.33
93.99
92.17
89.1
85.03
80.19
74.76
68.97
63.09
57.54
52.77
49.19
47.05
46.33
46.72
47.66
48.52
48.75
48.06
46.53
44.56
42.66
41.34
40.81
40.96
41.27
40.91
39.02
34.95
28.6
20.56
12.08
4.7
-0.15
-1.62
0.34
5.09
11.56
18.6
25.17
30.49
34.04
35.56
35.09
32.94
29.59
25.52
21.05
16.31
11.37
6.31
1.44
-2.83
-6.09
-8.15
-9.05
-9.04
-8.39
-7.29
-5.9
-4.36
-2.89
-1.74
-1.1
-1.02
-1.48
-2.31
-3.32
-4.3
-5.07
-5.48
-5.47
-5.15
-4.76
-4.56
-4.73
-5.3
-6.16
-7.25
-8.66
-10.64
-13.34
-16.63
-19.91
-22.26
-22.73
-20.76
-16.37
-10.21
-3.34
3.15
8.38
11.81
13.27
12.82
10.67
7.14
2.67
-2.25
-7.06
-11.27
-14.48
-16.49
-17.28
-16.95
-15.69
-13.75
-11.35
-8.8
-6.41
-4.53
-3.41
-3.22
-3.95
-5.56
-7.92
-10.88
-14.27
-17.92
-21.62
-25.21
-28.64
-32.0
-35.49
-39.31
-43.54
-48.06
-52.45
-56.03
-57.97
-57.48
-54.0
-47.42
-38.12
-26.99
-15.17
-3.83
6.06
13.87
19.35
22.48
23.38
22.27
19.45
15.36
10.58
5.78
1.54
-1.75
-4.01
-5.32
-5.87
-5.81
-5.22
-4.23
-3.12
-2.36
-2.48
-3.9
-6.68
-10.52
-14.85
-19.0
-22.45
-25.03
-26.87
-28.4
-30.16
-32.6
-36.03
-40.37
-45.04
-49.2
-51.87
-52.06
-49.01
-42.4
-32.48
-20.07
-6.29
7.75
20.98
32.57
42.08
49.46
54.95
58.95
61.84
63.95
65.67
67.01
67.75
67.82
67.43
67.06
67.23
68.28
70.28
73.61
77.83
82.01
85.42
87.89
89.58
90.54
90.61
89.64
88.91
88.7
88.54
88.2
88.15
88.94
90.67
92.94
95.3
99.64
106.08
113.39
120.84
129.19
139.84
153.65
170.31
188.19
207.12
223.07
229.65
221.72
197.97
160.62
114.01
63.17
-2.85
-76.56
-140.87
-184.27
-207.75
-217.76
-219.36
-214.56
-203.67
-189.18
-168.88
-144.76
-121.9
-104.83
-95.06
-91.63
-92.72
-97.03
-103.03
-107.85
-111.52
-115.97
-122.65
-131.09
-139.41
-145.37
-146.97
-142.84
-131.23
-113.11
-91.47
-69.58
-49.45
-31.72
-15.91
-0.92
14.55
32.04
51.55
71.82
91.26
108.71
123.56
135.56
144.58
150.52
153.51
153.38
150.05
143.77
135.37
125.91
116.35
107.27
98.8
90.55
82.1
73.16
63.78
54.21
44.89
36.31
28.76
22.16
15.9
9.25
1.62
-7.15
-16.56
-25.41
-32.0
-34.67
-32.44
-25.79
-16.11
-5.39
4.27
11.14
14.33
13.81
10.05
3.65
-5.76
-17.81
-31.31
-45.06
-58.43
-71.27
-83.6
-95.46
-106.7
-118.82
-131.79
-144.37
-155.84
-166.84
-178.59
-191.72
-206.07
-220.52
-236.43
-252.85
-266.9
-276.48
-281.54
-282.98
-281.34
-276.83
-269.11
-261.4
-253.79
-242.91
-225.38
-199.88
-166.75
-127.01
-82.81
-14.3
72.46
154.55
215.43
254.45
277.46
287.63
286.76
271.83
240.98
192.89
133.45
74.18
24.44
-9.22
-24.98
-25.23
-14.94
1.48
19.1
37.11
58.64
85.77
112.37
129.51
132.44
122.11
103.15
82.89
63.21
46.28
32.98
22.49
13.99
6.39
0.25
-3.36
-4.45
-3.71
-1.36
1.68
3.99
4.99
5.27
6.07
8.48
12.44
16.74
20.48
22.78
23.16
22.0
20.24
18.87
18.4
18.75
19.18
19.3
18.94
18.18
17.36
16.75
16.52
16.79
17.35
17.64
17.26
16.05
14.05
11.46
8.46
5.22
2.38
0.15
-1.99
-4.58
-7.62
-10.54
-12.61
-13.44
-12.98
-10.53
-6.55
-3.05
-2.17
-4.57
-9.07
-13.32
-14.83
-11.3
0.39
20.53
45.64
70.46
90.98
105.58
114.77
120.13
124.22
131.9
145.48
163.09
180.45
193.71
200.23
198.04
185.45
145.18
75.82
-4.63
-73.22
-119.43
-145.72
-159.89
-169.16
-180.15
-191.99
-198.72
-195.8
-183.07
-163.73
-141.48
-119.15
-96.24
-74.67
-55.82
-38.4
-21.33
-5.11
8.87
19.75
27.49
32.33
34.0
32.89
30.71
28.54
26.07
22.43
17.38
12.17
9.04
9.75
15.48
26.56
41.61
57.92
72.55
83.0
88.85
91.55
93.09
95.32
99.49
105.69
112.51
117.13
114.92
102.24
77.86
42.98
1.01
-43.19
-84.45
-118.67
-143.96
-162.01
-174.75
-182.91
-186.3
-184.69
-178.32
-168.14
-155.77
-133.8
-102.81
-69.95
-41.37
-17.56
3.79
23.99
42.08
55.98
63.86
64.25
58.08
48.27
37.82
28.25
19.59
10.86
1.48
-9.23
-21.04
-32.36
-40.86
-44.79
-43.81
-38.96
-32.08
-24.63
-17.35
-9.5
-0.04
11.39
24.1
36.92
49.37
60.07
69.35
78.34
89.52
104.22
121.67
139.59
155.22
166.04
169.41
163.21
137.1
90.11
32.77
-19.4
-55.65
-73.36
-75.77
-69.48
-60.96
-54.52
-50.11
-46.28
-42.84
-39.8
-37.87
-37.64
-39.97
-45.03
-51.94
-58.52
-63.88
-69.15
-76.52
-88.2
-101.91
-115.25
-125.18
-128.27
-121.95
-106.5
-84.92
-61.18
-38.68
-19.09
-2.98
10.42
23.25
37.19
52.07
66.16
77.54
85.1
89.13
90.73
85.89
74.74
61.63
51.39
45.54
42.82
41.33
39.92
38.21
36.38
35.62
36.35
37.88
39.09
39.23
38.06
35.58
31.65
26.1
19.71
13.35
7.55
2.63
-1.25
-4.28
-6.97
-10.04
-13.86
-17.82
-21.1
-23.32
-24.63
-25.54
-26.62
-28.14
-30.02
-31.72
-32.36
-31.38
-28.91
-25.59
-22.26
-19.69
-18.06
-17.32
-17.16
-17.15
-17.0
-16.62
-16.04
-15.32
-14.47
-13.45
-12.29
-11.11
-10.13
-9.57
-9.45
-9.54
-9.34
-8.31
-6.08
-2.7
1.37
5.41
8.68
10.71
11.44
11.07
9.93
8.3
6.36
4.16
1.78
-0.65
-2.96
-4.94
-6.45
-7.47
-8.04
-8.23
-8.01
-7.29
-5.91
-4.2
-2.43
-0.9
0.13
0.55
0.4
-0.16
-0.99
-2.03
-3.31
-4.85
-6.65
-8.58
-10.42
-11.92
-12.9
-13.31
-13.25
-12.94
-12.62
-12.55
-13.0
-14.14
-15.97
-18.27
-20.54
-22.11
-22.32
-20.67
-17.05
-11.78
-5.48
1.05
7.1
12.17
16.08
18.89
20.82
22.11
22.88
23.17
22.91
22.07
20.63
18.73
16.58
14.49
12.72
11.48
10.81
10.6
10.7
10.88
10.99
10.9
10.5
9.68
8.33
6.45
4.14
1.7
-0.56
-2.34
-3.58
-4.44
-5.22
-6.24
-7.72
-9.72
-12.11
-14.61
-16.76
-18.03
-17.92
-16.05
-12.33
-7.08
-0.9
5.46
11.38
16.45
20.55
23.72
25.99
27.36
27.76
27.16
25.74
23.82
21.78
19.93
18.42
17.25
16.28
15.37
14.42
13.43
12.49
11.66
10.94
10.23
9.41
8.34
6.91
5.09
2.97
0.68
-1.63
-3.91
-6.22
-8.64
-11.24
-13.98
-16.69
-18.93
-20.14
-19.81
-17.63
-13.67
-8.14
-1.54
5.4
11.92
17.42
21.61
24.39
25.82
25.96
25.37
24.56
23.82
23.09
22.3
21.46
20.65
20.0
19.56
20.01
21.74
24.51
27.48
29.83
31.11
31.37
31.04
30.55
31.27
34.11
39.12
45.51
52.24
58.51
63.77
67.67
64.28
50.66
28.63
4.17
-16.72
-30.97
-38.43
-40.57
-38.93
-35.34
-29.94
-22.65
-13.93
-4.95
2.94
8.88
11.75
11.4
8.19
3.52
-1.31
-5.74
-9.99
-14.52
-19.48
-24.66
-29.46
-33.4
-35.73
-36.16
-35.03
-33.18
-31.47
-30.49
-30.43
-31.08
-32.08
-32.77
-32.71
-31.79
-30.38
-28.99
-28.03
-27.64
-27.65
-27.73
-27.5
-26.79
-25.7
-24.55
-23.61
-23.03
-22.73
-22.5
-22.21
-21.84
-21.51
-21.43
-21.74
-22.48
-23.51
-24.58
-25.32
-25.34
-24.28
-21.87
-18.07
-13.12
-7.48
-1.77
3.44
7.74
11.02
13.35
14.92
15.88
16.33
16.34
15.95
15.24
14.33
13.37
12.48
11.78
11.33
11.17
11.29
11.7
12.34
13.11
13.84
14.34
14.41
13.94
12.93
11.54
9.96
8.36
6.82
5.29
3.67
1.87
-0.07
-2.03
-3.84
-5.37
-6.6
-7.63
-8.68
-10.01
-11.82
-14.17
-16.86
-19.46
-21.39
-22.09
-21.15
-18.33
-13.7
-7.52
-0.34
7.14
14.15
20.1
24.76
28.34
31.31
34.1
36.78
39.02
40.35
40.51
39.69
38.46
37.42
36.76
36.16
34.93
32.49
28.76
24.29
19.93
16.42
13.97
12.19
10.42
8.08
4.96
1.29
-2.52
-6.14
-9.54
-12.91
-16.5
-20.38
-24.4
-28.22
-31.53
-34.19
-36.28
-38.05
-39.73
-41.41
-42.99
-44.15
-44.49
-43.63
-41.33
-37.62
-32.78
-27.28
-21.69
-16.51
-12.06
-8.49
-5.77
-3.84
-2.62
-2.04
-1.99
-2.33
-2.87
-3.4
-3.71
-3.64
-3.11
-2.1
-0.72
0.87
2.45
3.83
4.88
5.57
5.92
5.97
5.73
5.18
4.31
3.15
1.82
0.47
-0.76
-1.78
-2.61
-3.32
-4.02
-4.84
-5.84
-7.01
-8.25
-9.39
-10.28
-10.86
-11.23
-11.63
-12.34
-13.59
-15.41
-17.65
-19.97
-21.97
-23.27
-23.59
-22.76
-20.73
-17.58
-13.49
-8.77
-3.81
0.94
5.12
8.4
10.62
11.81
12.08
11.69
10.96
10.16
9.45
8.88
8.41
7.97
7.61
7.41
7.51
7.98
8.79
9.79
10.78
11.6
12.14
12.34
12.13
11.52
10.58
9.41
8.14
6.9
5.7
4.58
3.54
2.62
1.88
1.28
0.72
-0.01
-1.09
-2.57
-4.33
-6.12
-7.66
-8.81
-9.59
-10.14
-10.66
-11.29
-12.2
-13.46
-15.09
-16.98
-18.84
-20.23
-20.67
-19.78
-17.41
-13.73
-9.14
-4.1
0.98
5.81
10.21
14.03
17.06
19.14
20.15
20.2
19.52
18.47
17.41
16.58
16.1
15.94
16.07
16.42
16.92
17.5
18.08
18.53
18.78
18.76
18.43
17.79
16.81
15.52
13.98
12.27
10.51
8.79
7.15
5.56
3.96
2.24
0.33
-1.78
-4.03
-6.3
-8.4
-10.19
-11.63
-12.87
-14.19
-15.91
-18.09
-20.53
-22.66
-23.77
-23.27
-20.91
-16.87
-11.68
-6.01
-0.47
4.52
8.75
12.13
14.66
16.33
17.15
17.18
16.57
15.61
14.62
13.93
13.64
13.68
13.87
13.99
13.96
13.85
13.78
13.83
13.95
13.96
13.67
12.96
11.85
10.45
8.83
7.08
5.21
3.27
1.38
-0.35
-1.87
-3.21
-4.46
-5.69
-6.94
-8.15
-9.25
-10.25
-11.26
-12.48
-14.09
-16.1
-18.32
-20.32
-21.58
-21.58
-20.03
-16.91
-12.48
-7.22
-1.7
3.51
7.98
11.45
13.88
15.35
16.1
16.33
16.16
15.67
14.87
13.79
12.58
11.4
10.42
9.72
9.26
8.96
8.73
8.58
8.53
8.62
8.84
9.06
9.12
8.89
8.26
7.23
5.87
4.29
2.63
0.99
-0.56
-1.93
-3.06
-3.89
-4.4
-4.63
-4.66
-4.63
-4.7
-4.99
-5.55
-6.39
-7.44
-8.59
-9.79
-10.99
-12.21
-13.55
-15.13
-17.03
-19.19
-21.3
-22.84
-23.21
-21.98
-19.04
-14.73
-9.66
-4.5
0.27
4.41
7.91
10.78
12.99
14.42
15.02
14.87
14.19
13.29
12.38
11.54
10.73
9.9
9.04
8.22
7.54
7.07
6.83
6.74
6.75
6.76
6.69
6.48
6.06
5.44
4.67
3.84
3.08
2.44
1.93
1.44
0.86
0.1
-0.84
-1.83
-2.74
-3.45
-3.94
-4.32
-4.7
-5.17
-5.72
-6.25
-6.66
-6.95
-7.19
-7.56
-8.19
-9.12
-10.27
-11.47
-12.6
-13.56
-14.43
-15.34
-16.41
-17.73
-19.29
-20.99
-22.72
-24.36
-25.68
-26.38
-26.06
-24.33
-21.02
-16.29
-10.66
-4.85
0.4
4.65
7.76
9.89
11.28
12.08
12.34
12.04
11.23
10.11
8.98
8.11
7.67
7.69
8.05
8.67
9.42
10.24
11.0
11.58
11.83
11.7
11.22
10.53
9.77
9.05
8.4
7.77
7.1
6.34
5.53
4.7
3.93
3.28
2.74
2.29
1.82
1.25
0.53
-0.32
-1.23
-2.09
-2.84
-3.48
-4.05
-4.61
-5.19
-5.82
-6.5
-7.25
-8.1
-9.05
-10.1
-11.21
-12.34
-13.43
-14.5
-15.64
-16.95
-18.46
-20.03
-21.33
-21.9
-21.28
-19.19
-15.63
-10.95
-5.7
-0.5
4.18
8.08
11.14
13.4
14.91
15.67
15.7
15.08
13.95
12.62
11.37
10.43
9.92
9.82
10.02
10.43
10.96
11.52
12.04
12.43
12.67
12.76
12.74
12.63
12.42
12.03
11.38
10.46
9.37
8.28
7.34
6.61
6.07
5.59
5.06
4.39
3.51
2.43
1.17
-0.15
-1.39
-2.44
-3.27
-3.97
-4.81
-6.02
-7.78
-10.08
-12.75
-15.5
-18.09
-20.25
-21.73
-22.27
-21.68
-19.89
-17.07
-13.57
-9.91
-6.55
-3.85
-1.98
-0.97
-0.76
-1.25
-2.31
-3.79
-5.44
-6.98
-8.11
-8.57
-8.16
-6.81
-4.59
-1.72
1.47
4.64
7.51
9.99
12.09
13.91
15.58
17.18
18.8
20.51
22.4
24.47
26.65
28.75
30.55
31.97
33.11
34.18
35.4
36.84
38.32
39.53
40.11
39.84
38.73
36.92
34.64
32.05
29.21
26.08
22.54
18.53
14.02
9.04
3.69
-1.88
-7.4
-12.48
-16.63
-19.37
-20.38
-19.7
-17.72
-15.08
-12.46
-10.37
-9.02
-8.35
-8.17
-8.25
-8.47
-8.77
-9.14
-9.6
-10.1
-10.51
-10.65
-10.31
-9.28
-7.46
-4.93
-1.93
1.18
4.06
6.45
8.23
9.42
10.03
10.03
9.32
7.74
5.24
1.89
-2.04
-6.11
-9.84
-12.87
-15.01
-16.32
-17.05
-17.53
-18.09
-18.94
-20.13
-21.59
-23.2
-24.9
-26.69
-28.69
-31.05
-33.83
-36.87
-39.75
-41.88
-42.69
-41.77
-39.08
-34.95
-29.96
-24.79
-19.98
-15.82
-12.34
-9.34
-6.55
-3.77
-0.95
1.79
4.27
6.25
7.63
8.33
8.41
7.94
7.08
6.02
5.02
4.35
4.23
4.72
5.8
7.31
9.03
10.77
12.34
13.6
14.43
14.73
14.4
13.44
11.9
9.91
7.7
5.54
3.64
2.05
0.7
-0.6
-2.08
-3.85
-5.87
-7.98
-9.9
-11.34
-12.0
-11.62
-10.07
-7.41
-3.92
-0.06
3.65
6.81
9.19
10.8
11.73
12.12
12.06
11.63
10.88
9.89
8.74
7.48
6.18
4.97
4.05
3.62
3.84
4.67
5.89
7.16
8.17
8.7
8.62
7.87
6.45
4.36
1.76
-1.06
-3.69
-5.8
-7.3
-8.39
-9.46
-10.92
-13.0
-15.65
-18.54
-21.24
-23.26
-24.25
-24.0
-22.46
-19.74
-16.08
-11.83
-7.42
-3.33
0.05
2.4
3.65
3.91
3.45
2.57
1.5
0.32
-0.96
-2.34
-3.78
-5.12
-6.21
-6.92
-7.24
-7.24
-7.02
-6.69
-6.36
-6.13
-6.12
-6.42
-7.06
-7.96
-8.98
-9.98
-10.89
-11.73
-12.66
-13.82
-15.37
-17.28
-19.34
-21.12
-22.06
-21.62
-19.44
-15.52
-10.25
-4.3
1.54
6.66
10.72
13.69
15.71
16.99
17.62
17.66
17.12
16.08
14.75
13.41
12.33
11.72
11.63
12.02
12.77
13.74
14.81
15.87
16.75
17.24
17.12
16.19
14.36
11.68
8.33
4.58
0.74
-2.93
-6.23
-9.06
-11.47
-13.68
-15.98
-18.63
-21.67
-24.86
-27.61
-29.25
-29.18
-27.15
-23.32
-18.21
-12.52
-6.91
-1.89
2.24
5.47
7.93
9.9
11.61
13.22
14.7
15.91
16.75
17.25
17.62
18.23
19.37
21.11
23.27
25.49
27.39
28.76
29.59
29.95
29.95
29.61
28.88
27.74
26.2
24.34
22.33
20.36
18.59
17.13
15.95
14.98
14.03
12.95
11.65
10.14
8.53
6.97
5.59
4.4
3.33
2.22
0.87
-0.88
-3.1
-5.8
-8.86
-12.1
-15.26
-18.14
-20.58
-22.59
-24.32
-26.0
-27.9
-30.15
-32.64
-34.99
-36.58
-36.76
-35.02
-31.23
-25.68
-19.0
-11.99
-5.33
0.49
5.24
8.93
11.66
13.57
14.81
15.54
15.86
15.88
15.63
15.14
14.46
13.66
12.89
12.27
11.95
11.99
12.39
13.01
13.65
14.03
13.95
13.28
12.09
10.61
9.09
7.72
6.59
5.62
4.74
3.87
3.04
2.28
1.6
0.97
0.35
-0.22
-0.69
-0.96
-1.01
-0.88
-0.74
-0.75
-1.12
-1.98
-3.33
-5.09
-7.03
-8.85
-10.29
-11.26
-11.82
-12.21
-12.71
-13.54
-14.78
-16.39
-18.29
-20.33
-22.22
-23.52
-23.69
-22.25
-19.03
-14.32
-8.75
-3.12
1.9
5.97
9.04
11.24
12.73
13.62
13.98
13.92
13.6
13.22
12.91
12.74
12.69
12.72
12.83
13.05
13.48
14.13
14.96
15.81
16.47
16.74
16.48
15.62
14.23
12.41
10.32
8.13
6.03
4.19
2.68
1.48
0.44
-0.61
-1.83
-3.23
-4.72
-6.07
-7.09
-7.63
-7.71
-7.46
-7.1
-6.86
-6.95
-7.44
-8.34
-9.52
-10.78
-11.93
-12.83
-13.47
-13.92
-14.34
-14.89
-15.71
-16.87
-18.36
-20.04
-21.59
-22.58
-22.51
-21.04
-18.11
-14.02
-9.34
-4.66
-0.45
3.05
5.83
7.97
9.56
10.64
11.2
11.26
10.87
10.14
9.24
8.36
7.7
7.4
7.5
7.94
8.57
9.25
9.84
10.27
10.51
10.54
10.35
9.97
9.43
8.84
8.27
7.71
7.13
6.42
5.51
4.37
3.08
1.79
0.66
-0.22
-0.87
-1.44
-2.13
-3.11
-4.37
-5.76
-7.05
-8.04
-8.71
-9.19
-9.67
-10.34
-11.27
-12.43
-13.73
-15.08
-16.3
-17.16
-17.36
-16.6
-14.72
-11.82
-8.23
-4.43
-0.92
1.97
4.06
5.38
6.05
6.24
6.09
5.74
5.26
4.71
4.14
3.61
3.16
2.83
2.62
2.49
2.36
2.18
1.97
1.79
1.72
1.8
1.99
2.19
2.29
2.21
1.91
1.4
0.72
-0.11
-1.02
-1.93
-2.74
-3.36
-3.76
-4.01
-4.27
-4.71
-5.47
-6.57
-7.96
-9.54
-11.16
-12.6
-13.59
-13.77
-12.9
-10.87
-7.84
-4.23
-0.56
2.66
5.13
6.74
7.56
7.74
7.47
6.85
6.0
5.03
4.04
3.16
2.48
2.04
1.84
1.86
2.06
2.41
2.91
3.5
4.15
4.76
5.23
5.44
5.35
4.97
4.38
3.68
2.94
2.15
1.21
0.0
-1.52
-3.3
-5.14
-6.85
-8.24
-9.29
-10.11
-10.92
-11.91
-13.17
-14.6
-15.95
-16.92
-17.22
-16.73
-15.45
-13.48
-11.02
-8.24
-5.29
-2.31
0.58
3.19
5.32
6.74
7.3
7.03
6.13
4.96
3.94
3.37
3.4
3.96
4.84
5.83
6.73
7.44
7.94
8.26
8.43
8.47
8.4
8.21
7.84
7.24
6.37
5.28
4.09
2.94
1.92
1.04
0.2
-0.69
-1.7
-2.83
-4.0
-5.12
-6.14
-7.04
-7.83
-8.58
-9.38
-10.3
-11.43
-12.79
-14.34
-15.87
-17.11
-17.7
-17.33
-15.82
-13.21
-9.73
-5.78
-1.8
1.84
4.88
7.19
8.79
9.72
10.06
9.89
9.28
8.35
7.27
6.25
5.5
5.16
5.28
5.75
6.41
7.07
7.64
8.1
8.5
8.87
9.12
9.13
8.77
7.98
6.8
5.4
3.97
2.67
1.6
0.78
0.13
-0.45
-1.12
-2.02
-3.24
-4.76
-6.43
-8.08
-9.51
-10.6
-11.36
-11.91
-12.48
-13.32
-14.59
-16.24
-18.02
-19.48
-20.13
-19.61
-17.77
-14.72
-10.76
-6.31
-1.73
2.61
6.45
9.54
11.72
12.92
13.23
12.83
11.98
10.97
10.01
9.2
8.61
8.23
8.1
8.23
8.65
9.29
10.03
10.69
11.11
11.21
11.04
10.66
10.13
9.43
8.53
7.42
6.19
4.99
3.94
3.06
2.24
1.29
0.12
-1.27
-2.76
-4.17
-5.4
-6.45
-7.4
-8.33
-9.29
-10.29
-11.37
-12.56
-13.83
-15.04
-15.83
-15.69
-14.21
-11.22
-6.95
-2.0
2.95
7.31
10.78
13.35
15.14
16.28
16.8
16.69
15.96
14.73
13.25
11.84
10.8
10.3
10.34
10.82
11.55
12.36
13.18
13.97
14.74
15.41
15.85
15.9
15.46
14.57
13.39
12.1
10.82
9.6
8.42
7.23
6.05
4.93
3.9
2.94
2.0
1.0
-0.09
-1.21
-2.25
-3.11
-3.71
-4.11
-4.43
-4.85
-5.55
-6.6
-7.98
-9.56
-11.22
-12.84
-14.4
-15.93
-17.56
-19.43
-21.65
-24.22
-26.98
-29.53
-31.32
-31.75
-30.36
-26.99
-21.91
-15.68
-9.1
-2.87
2.45
6.61
9.56
11.46
12.53
13.02
13.17
13.15
13.1
13.14
13.34
13.78
14.46
15.37
16.41
17.51
18.57
19.56
20.47
21.3
22.01
22.5
22.62
22.27
21.42
20.2
18.85
17.63
16.69
16.08
15.64
15.14
14.38
13.28
11.91
10.44
9.06
7.89
6.89
5.96
4.95
3.81
2.54
1.22
-0.1
-1.35
-2.52
-3.64
-4.77
-5.97
-7.33
-8.92
-10.73
-12.65
-14.5
-16.1
-17.38
-18.47
-19.64
-21.16
-23.18
-25.54
-27.85
-29.55
-30.1
-29.11
-26.45
-22.29
-17.01
-11.13
-5.23
0.21
4.83
8.43
10.95
12.43
12.96
12.72
11.94
10.91
9.95
9.3
9.08
9.29
9.88
10.75
11.85
13.12
14.51
15.88
17.05
17.89
18.36
18.51
18.48
18.34
18.08
17.57
16.66
15.26
13.44
11.34
9.16
7.03
4.99
3.05
1.25
-0.34
-1.57
-2.4
-2.87
-3.16
-3.54
-4.2
-5.24
-6.55
-7.91
-9.13
-10.08
-10.8
-11.42
-12.12
-13.01
-14.1
-15.31
-16.53
-17.67
-18.72
-19.72
-20.81
-22.11
-23.69
-25.49
-27.3
-28.72
-29.27
-28.49
-26.15
-22.29
-17.24
-11.55
-5.74
-0.25
4.67
8.9
12.41
15.16
17.12
18.29
18.68
18.31
17.27
15.76
14.08
12.64
11.79
11.72
12.36
13.42
14.57
15.55
16.27
16.74
17.02
17.08
16.83
16.23
15.29
14.16
12.94
11.7
10.36
8.8
6.94
4.85
2.73
0.83
-0.64
-1.63
-2.24
-2.62
-2.94
-3.28
-3.67
-4.07
-4.47
-4.88
-5.32
-5.81
-6.29
-6.63
-6.72
-6.52
-6.02
-5.36
-4.69
-4.18
-4.0
-4.22
-4.88
-5.9
-7.1
-8.17
-8.74
-8.43
-6.95
-4.17
-0.2
4.67
9.98
15.21
19.89
23.64
26.25
27.65
27.91
27.19
25.71
23.73
21.48
19.17
16.95
14.89
12.97
11.1
9.16
7.05
4.74
2.28
-0.24
-2.77
-5.25
-7.68
-10.01
-12.19
-14.1
-15.64
-16.79
-17.6
-18.16
-18.6
-19.0
-19.34
-19.57
-19.66
-19.6
-19.45
-19.33
-19.36
-19.63
-20.16
-20.9
-21.74
-22.58
-23.37
-24.08
-24.76
-25.46
-26.25
-27.12
-28.07
-29.04
-29.85
-30.3
-30.04
-28.72
-26.11
-22.17
-17.2
-11.71
-6.31
-1.44
2.67
6.03
8.74
10.82
12.19
12.74
12.43
11.44
10.14
8.96
8.17
7.81
7.79
7.93
8.13
8.36
8.65
8.96
9.2
9.18
8.8
7.98
6.76
5.26
3.65
2.07
0.63
-0.65
-1.85
-3.13
-4.63
-6.34
-8.11
-9.65
-10.65
-10.98
-10.75
-10.27
-9.87
-9.82
-10.2
-10.97
-12.05
-13.38
-14.98
-16.84
-18.94
-21.22
-23.64
-26.21
-28.96
-31.85
-34.7
-37.1
-38.5
-38.42
-36.56
-32.99
-28.04
-22.22
-16.04
-9.87
-3.96
1.56
6.62
11.14
15.11
18.64
21.91
25.11
28.35
31.62
34.8
37.73
40.28
42.38
44.02
45.21
45.89
46.0
45.55
44.57
43.2
41.6
39.89
38.15
36.39
34.61
32.78
30.88
28.82
26.51
23.85
20.77
17.34
13.7
10.11
6.8
3.95
1.59
-0.36
-2.08
-3.73
-5.46
-7.28
-9.13
-10.91
-12.5
-13.87
-15.04
-16.13
-17.23
-18.44
-19.85
-21.56
-23.62
-26.0
-28.49
-30.66
-31.95
-31.87
-30.15
-26.94
-22.71
-18.11
-13.78
-10.13
-7.32
-5.31
-3.96
-3.16
-2.87
-3.15
-4.06
-5.57
-7.54
-9.63
-11.46
-12.68
-13.07
-12.58
-11.39
-9.75
-7.9
-6.06
-4.31
-2.73
-1.39
-0.4
0.12
0.1
-0.36
-1.02
-1.6
-1.85
-1.77
-1.55
-1.5
-1.79
-2.42
-3.12
-3.56
-3.51
-2.94
-2.09
-1.33
-1.01
-1.35
-2.42
-4.12
-6.2
-8.28
-9.85
-10.36
-9.38
-6.69
-2.43
2.9
8.65
14.14
18.92
22.76
25.61
27.53
28.57
28.77
28.22
27.11
25.7
24.25
22.88
21.57
20.2
18.61
16.8
14.87
13.01
11.35
9.94
8.68
7.47
6.24
4.97
3.72
2.48
1.19
-0.3
-2.1
-4.25
-6.63
-9.08
-11.44
-13.67
-15.85
-18.14
-20.68
-23.43
-26.12
-28.24
-29.2
-28.52
-25.96
-21.7
-16.2
-10.13
-4.11
1.43
6.23
10.23
13.38
15.67
17.13
17.86
18.04
17.88
17.5
16.88
15.98
14.73
13.27
11.88
10.88
10.46
10.61
11.09
11.58
11.83
11.73
11.28
10.48
9.32
7.73
5.67
3.24
0.63
-1.86
-4.07
-5.98
-7.76
-9.63
-11.7
-13.82
-15.66
-16.72
-16.58
-15.01
-12.05
-7.98
-3.2
1.81
6.67
11.06
14.77
17.64
19.57
20.5
20.44
19.54
18.07
16.33
14.63
13.13
11.89
10.87
10.03
9.39
8.97
8.76
8.65
8.49
8.17
7.61
6.88
6.03
5.08
3.97
2.63
1.05
-0.68
-2.37
-3.94
-5.41
-6.96
-8.77
-10.9
-13.19
-15.24
-16.58
-16.81
-15.77
-13.56
-10.44
-6.73
-2.74
1.28
5.13
8.55
11.3
13.15
13.99
13.83
12.84
11.3
9.52
7.78
6.27
5.12
4.34
3.88
3.63
3.47
3.31
3.11
2.89
2.69
2.52
2.34
1.99
1.33
0.22
-1.3
-3.07
-4.87
-6.46
-7.78
-8.87
-9.9
-11.01
-12.3
-13.8
-15.46
-17.2
-18.87
-20.25
-21.0
-20.76
-19.26
-16.47
-12.56
-7.91
-3.01
1.73
5.93
9.36
11.88
13.43
14.08
13.95
13.26
12.22
11.01
9.77
8.61
7.63
6.92
6.57
6.57
6.9
7.42
8.0
8.43
8.53
8.17
7.31
6.01
4.43
2.74
1.09
-0.4
-1.7
-2.8
-3.73
-4.53
-5.27
-6.02
-6.84
-7.74
-8.64
-9.47
-10.14
-10.69
-11.21
-11.9
-12.98
-14.57
-16.64
-18.89
-20.82
-21.8
-21.31
-19.12
-15.39
-10.64
-5.56
-0.79
3.27
6.48
8.91
10.65
11.81
12.44
12.64
12.52
12.2
11.8
11.36
10.87
10.33
9.78
9.34
9.11
9.12
9.31
9.53
9.63
9.5
9.14
8.6
7.94
7.21
6.4
5.51
4.54
3.51
2.53
1.67
1.01
0.53
0.16
-0.21
-0.68
-1.23
-1.8
-2.26
-2.57
-2.79
-3.13
-3.77
-4.84
-6.29
-7.92
-9.55
-11.04
-12.36
-13.61
-14.87
-16.21
-17.62
-19.06
-20.4
-21.49
-22.08
-21.91
-20.75
-18.48
-15.16
-10.97
-6.27
-1.45
3.08
6.95
9.95
11.98
13.15
13.67
13.78
13.69
13.52
13.37
13.23
13.08
12.85
12.46
11.82
10.93
9.92
9.02
8.46
8.4
8.8
9.49
10.15
10.49
10.3
9.54
8.28
6.68
4.94
3.21
1.6
0.18
-1.01
-1.91
-2.51
-2.84
-3.02
-3.25
-3.74
-4.65
-6.0
-7.66
-9.48
-11.23
-12.75
-13.86
-14.41
-14.24
-13.22
-11.33
-8.68
-5.51
-2.16
1.03
3.84
6.17
8.07
9.62
10.84
11.65
11.93
11.65
10.88
9.83
8.73
7.77
7.02
6.46
6.08
5.9
5.96
6.22
6.53
6.67
6.45
5.78
4.76
3.53
2.23
0.86
-0.6
-2.19
-3.84
-5.45
-6.89
-8.18
-9.42
-10.74
-12.2
-13.73
-15.16
-16.35
-17.32
-18.23
-19.31
-20.71
-22.42
-24.19
-25.63
-26.33
-25.97
-24.43
-21.77
-18.24
-14.21
-10.08
-6.19
-2.82
-0.09
2.01
3.52
4.51
5.07
5.22
5.03
4.61
4.09
3.62
3.26
3.03
2.81
2.49
2.01
1.4
0.77
0.26
-0.08
-0.29
-0.45
-0.67
-1.03
-1.54
-2.18
-2.9
-3.67
-4.42
-5.07
-5.57
-5.89
-6.09
-6.27
-6.52
-6.91
-7.39
-7.88
-8.29
-8.6
-8.87
-9.23
-9.85
-10.83
-12.23
-14.02
-16.02
-17.96
-19.41
-19.93
-19.09
-16.66
-12.7
-7.57
-1.9
3.64
8.42
12.09
14.54
15.84
16.17
15.75
14.79
13.52
12.19
11.0
10.11
9.54
9.28
9.27
9.5
9.94
10.58
11.34
12.04
12.5
12.57
12.24
11.6
10.79
9.94
9.04
8.05
6.9
5.54
4.02
2.46
0.98
-0.39
-1.67
-2.95
-4.26
-5.54
-6.7
-7.64
-8.34
-8.87
-9.45
-10.35
-11.75
-13.6
-15.69
-17.76
-19.68
-21.31
-22.62
-23.58
-24.09
-23.95
-22.85
-20.54
-17.03
-12.6
-7.49
-1.89
4.09
10.32
16.6
22.67
28.26
33.2
36.59
37.92
37.53
36.5
35.77
35.49
35.23
34.52
33.26
31.65
30.18
29.12
28.37
27.6
26.53
25.2
23.91
22.97
22.48
22.63
23.0
23.03
22.3
20.58
17.99
14.88
11.71
8.88
6.81
5.68
5.37
5.51
5.64
5.37
4.54
3.27
1.8
0.3
-0.32
0.14
1.5
3.3
5.03
6.27
6.8
6.5
5.38
3.51
0.99
-1.96
-5.01
-7.89
-10.45
-12.69
-14.71
-16.53
-18.06
-19.26
-20.17
-20.96
-21.93
-23.31
-25.12
-27.03
-28.58
-29.41
-29.51
-29.25
-29.15
-29.63
-30.75
-32.2
-33.51
-34.31
-34.5
-34.37
-34.29
-34.57
-35.29
-36.3
-37.31
-38.04
-38.22
-37.63
-36.15
-33.71
-30.39
-26.38
-21.92
-17.25
-12.55
-7.88
-3.33
0.95
4.76
7.87
10.17
11.71
12.7
13.39
14.02
14.74
15.59
16.54
17.52
18.45
19.35
20.37
21.74
23.67
26.2
29.07
31.79
33.8
34.73
34.47
33.2
31.2
28.69
25.72
22.19
18.02
13.21
7.88
2.13
-4.01
-10.6
-17.63
-24.88
-31.86
-37.89
-42.38
-44.97
-45.76
-45.22
-43.99
-42.66
-41.52
-40.58
-39.5
-37.72
-34.62
-29.71
-22.91
-14.64
-5.64
3.18
11.03
17.48
22.56
26.62
30.12
33.39
36.3
38.59
40.07
40.51
39.7
37.53
34.28
30.71
27.72
25.88
24.97
23.95
21.32
16.09
8.32
-0.73
-9.22
-15.6
-19.37
-21.02
-21.51
-21.64
-21.47
-20.48
-18.15
-14.37
-9.71
-5.03
-0.92
2.66
6.18
10.18
14.66
19.13
23.06
26.48
30.38
35.81
43.78
53.19
60.75
62.02
53.7
35.5
10.64
-15.25
-36.45
-49.35
-53.9
-51.84
-45.8
-37.99
-29.56
-20.84
-12.03
-3.66
3.29
7.86
9.87
9.96
9.25
8.92
9.58
11.12
12.99
14.43
14.94
14.57
13.38
11.03
7.12
0.92
-8.07
-19.52
-32.32
-44.44
-53.32
-56.74
-53.58
-44.17
-30.4
-15.38
-1.08
10.58
18.58
22.9
24.16
23.09
20.5
17.27
14.14
12.69
13.9
17.93
24.06
30.61
35.51
37.08
34.59
28.56
20.46
12.05
4.05
-2.94
-8.64
-12.94
-15.86
-17.37
-17.38
-15.78
-12.86
-9.33
-6.1
-4.32
-5.31
-10.11
-18.92
-30.61
-42.19
-50.3
-53.87
-52.5
-46.88
-38.33
-27.99
-16.29
-2.79
13.13
31.42
51.15
68.16
78.34
79.53
72.37
59.53
44.32
29.51
16.66
6.2
-1.81
-8.01
-12.54
-15.39
-16.69
-16.81
-16.28
-15.76
-15.88
-17.04
-18.76
-20.28
-20.88
-20.14
-18.06
-15.05
-11.85
-9.39
-8.36
-9.02
-11.1
-14.02
-17.05
-19.52
-20.99
-21.39
-21.06
-20.49
-20.26
-20.86
-22.51
-24.86
-26.96
-27.55
-25.52
-20.36
-12.2
-2.08
8.37
17.57
24.53
29.07
31.58
32.68
32.95
33.19
33.86
35.05
36.63
38.47
40.47
42.36
43.79
44.49
44.85
45.26
45.84
46.44
46.81
46.51
44.94
41.49
32.93
18.96
2.23
-13.61
-26.5
-36.21
-43.14
-47.38
-48.61
-46.56
-41.14
-33.35
-25.04
-17.98
-12.92
-9.46
-6.78
-4.37
-2.2
-0.23
1.24
1.87
1.54
0.67
0.01
0.31
1.94
4.85
8.72
12.87
15.82
16.45
14.37
10.18
5.05
0.31
-2.94
-4.02
-2.84
0.2
4.66
10.03
15.56
19.99
21.77
19.73
13.64
4.42
-6.1
-15.54
-21.75
-23.67
-21.71
-17.33
-12.06
-6.87
-2.08
2.46
7.27
12.77
18.88
24.71
28.9
30.24
27.91
21.21
9.38
-8.08
-29.86
-51.67
-68.8
-79.16
-83.23
-82.02
-76.11
-66.14
-53.05
-38.54
-24.78
-14.15
-8.31
-7.36
-9.75
-12.7
-14.13
-11.34
-2.84
11.39
29.8
49.85
69.09
85.78
99.27
109.37
116.18
119.59
119.24
114.78
106.46
95.8
84.08
74.83
71.45
76.16
89.02
107.81
128.48
146.12
156.29
155.99
144.6
123.39
95.35
64.32
34.17
8.03
-12.23
-26.19
-34.73
-39.65
-43.41
-48.43
-56.39
-67.72
-81.61
-96.33
-109.96
-121.01
-128.77
-133.49
-136.06
-137.52
-138.74
-140.08
-141.46
-142.3
-141.66
-138.35
-131.23
-119.52
-103.06
-82.61
-59.74
-36.52
-15.01
3.22
17.48
27.87
35.01
39.68
42.51
43.88
43.96
42.75
40.26
36.45
31.33
24.91
17.29
8.73
-0.36
-9.45
-18.03
-25.77
-32.58
-38.67
-44.45
-50.41
-56.89
-63.96
-71.13
-77.38
-81.19
-81.02
-75.73
-65.15
-50.27
-33.01
-15.58
0.41
14.44
27.24
40.24
54.72
71.05
88.43
105.27
119.9
131.43
140.15
147.32
154.55
163.18
173.9
186.71
200.96
215.29
227.45
234.46
233.03
220.41
195.39
158.99
114.46
66.34
19.14
-23.94
-61.29
-92.58
-118.21
-138.75
-154.72
-166.68
-175.41
-181.9
-187.42
-192.65
-197.43
-201.08
-202.97
-203.12
-202.28
-201.76
-202.88
-207.04
-213.94
-221.41
-226.31
-225.47
-216.73
-199.01
-172.75
-140.01
-105.73
-74.31
-48.51
-29.55
-17.46
-11.71
-10.64
-11.91
-13.23
-15.13
-17.01
-17.22
-14.93
-11.35
-10.3
-15.28
-28.16
-48.42
-76.26
-107.83
-136.09
-154.25
-158.44
-149.59
-130.77
-106.35
-62.32
-2.97
53.94
93.32
110.01
114.64
114.36
113.0
112.56
114.36
115.61
114.92
113.23
112.48
114.01
116.97
120.61
124.47
129.77
134.64
137.68
139.03
139.88
141.6
144.15
147.73
152.49
160.37
170.3
180.09
187.88
192.84
194.96
193.83
189.59
169.67
132.1
85.71
43.5
12.85
-6.14
-17.43
-26.17
-36.03
-48.11
-58.8
-64.57
-63.97
-58.53
-51.03
-44.46
-41.3
-42.45
-47.02
-51.37
-53.02
-51.65
-49.0
-46.55
-43.87
-39.12
-30.87
-19.91
-8.72
-1.5
-1.89
-10.65
-24.67
-38.79
-48.77
-53.18
-53.41
-51.59
-49.71
-48.68
-48.34
-47.71
-45.66
-41.58
-35.51
-28.0
-19.7
-11.27
-3.42
3.51
8.94
12.19
12.56
9.58
3.27
-5.64
-15.76
-25.14
-31.76
-33.82
-30.0
-19.95
-4.61
13.67
31.28
44.58
51.64
52.66
49.48
44.56
39.78
35.9
32.77
29.95
27.38
25.42
24.5
24.66
25.51
26.42
26.8
26.42
25.53
24.85
25.14
26.72
29.07
30.85
30.36
26.25
18.3
7.62
-3.74
-13.67
-20.91
-25.45
-28.21
-30.43
-32.86
-35.55
-37.96
-39.47
-39.76
-38.88
-37.3
-35.14
-32.45
-29.18
-25.18
-20.46
-15.24
-9.93
-4.99
-0.8
2.51
4.97
6.84
8.4
9.83
11.16
12.21
12.76
12.57
11.61
9.97
7.94
5.96
4.46
3.82
4.14
5.34
7.09
9.01
10.73
11.98
12.61
12.5
11.54
9.64
6.79
3.09
-1.16
-5.56
-9.67
-13.01
-15.27
-16.29
-16.17
-15.21
-13.82
-12.41
-11.19
-10.19
-9.25
-8.26
-7.15
-6.08
-5.3
-5.04
-5.39
-6.41
-7.88
-9.39
-10.55
-11.07
-10.92
-10.4
-10.06
-10.58
-12.46
-15.84
-20.35
-25.23
-29.45
-32.02
-32.2
-29.62
-24.38
-17.02
-8.34
0.7
9.16
16.3
21.63
24.97
26.38
26.12
24.5
21.86
18.5
14.7
10.7
6.76
3.18
0.2
-2.01
-3.42
-4.14
-4.34
-4.2
-3.78
-3.09
-2.17
-1.14
-0.26
0.2
0.03
-0.74
-1.93
-3.25
-4.48
-5.54
-6.46
-7.38
-8.45
-9.82
-11.65
-14.06
-17.04
-20.3
-23.23
-25.03
-24.85
-22.15
-16.89
-9.52
-0.92
7.96
16.26
23.34
28.82
32.49
34.26
34.19
32.49
29.54
25.87
22.07
18.7
16.17
14.74
14.45
15.17
16.63
18.47
20.31
21.78
22.64
22.76
22.15
20.92
19.24
17.3
15.26
13.27
11.39
9.61
7.86
6.04
4.04
1.83
-0.63
-3.28
-6.08
-8.95
-11.88
-14.87
-18.04
-21.5
-25.29
-29.31
-33.14
-36.17
-37.71
-37.16
-34.3
-29.3
-22.73
-15.33
-7.87
-0.94
5.08
10.0
13.74
16.27
17.57
17.69
16.8
15.24
13.46
11.93
10.95
10.64
10.86
11.35
11.91
12.43
12.94
13.47
13.99
14.36
14.39
13.91
12.86
11.27
9.3
7.14
5.02
3.14
1.6
0.37
-0.66
-1.63
-2.65
-3.8
-5.11
-6.66
-8.56
-10.91
-13.62
-16.38
-18.6
-19.6
-18.84
-16.13
-11.69
-6.05
0.08
6.07
11.45
15.97
19.53
22.12
23.73
24.33
23.94
22.67
20.76
18.57
16.49
14.8
13.64
12.97
12.66
12.53
12.42
12.24
11.94
11.52
10.99
10.37
9.69
8.94
8.07
6.98
5.61
3.96
2.12
0.27
-1.46
-2.96
-4.23
-5.32
-6.28
-7.15
-7.95
-8.71
-9.48
-10.37
-11.44
-12.69
-14.04
-15.41
-16.77
-18.16
-19.75
-21.67
-24.01
-26.65
-29.23
-31.19
-31.89
-30.78
-27.58
-22.46
-15.93
-8.75
-1.7
4.61
9.81
13.73
16.39
17.9
18.47
18.37
17.89
17.27
16.67
16.16
15.73
15.4
15.22
15.29
15.66
16.3
17.12
17.98
18.74
19.32
19.68
19.75
19.5
18.9
17.93
16.61
14.95
12.95
10.68
8.26
5.92
3.93
2.45
1.5
0.86
0.27
-0.49
-1.43
-2.4
-3.22
-3.83
-4.36
-5.06
-6.16
-7.7
-9.48
-11.25
-12.83
-14.25
-15.63
-17.13
-18.75
-20.34
-21.77
-23.0
-24.2
-25.67
-27.58
-29.86
-32.02
-33.38
-33.23
-31.19
-27.33
-22.14
-16.31
-10.51
-5.18
-0.53
3.41
6.67
9.19
10.88
11.61
11.42
10.48
9.16
7.83
6.8
6.25
6.17
6.42
6.84
7.28
7.64
7.87
7.96
7.9
7.69
7.34
6.85
6.24
5.54
4.83
4.21
3.78
3.59
3.55
3.5
3.24
2.67
1.8
0.78
-0.21
-1.08
-1.85
-2.64
-3.54
-4.57
-5.64
-6.62
-7.43
-8.08
-8.71
-9.43
-10.35
-11.47
-12.74
-14.06
-15.33
-16.5
-17.54
-18.46
-19.32
-20.24
-21.36
-22.78
-24.47
-26.13
-27.28
-27.29
-25.65
-22.14
-16.96
-10.72
-4.16
1.99
7.26
11.42
14.46
16.47
17.57
17.93
17.77
17.32
16.76
16.2
15.61
14.95
14.22
13.57
13.2
13.28
13.81
14.61
15.42
16.0
16.23
16.13
15.77
15.19
14.38
13.32
12.0
10.54
9.06
7.64
6.33
5.08
3.82
2.52
1.18
-0.15
-1.43
-2.61
-3.69
-4.61
-5.39
-6.02
-6.58
-7.18
-7.95
-8.96
-10.23
-11.71
-13.33
-15.05
-16.8
-18.48
-19.89
-20.69
-20.49
-18.94
-15.89
-11.47
-6.1
-0.34
5.26
10.3
14.53
17.86
20.22
21.58
21.89
21.22
19.8
17.95
16.1
14.54
13.48
12.87
12.6
12.49
12.42
12.32
12.17
11.97
11.71
11.38
10.98
10.48
9.87
9.1
8.14
6.94
5.54
3.98
2.39
0.86
-0.58
-1.92
-3.21
-4.54
-5.95
-7.45
-9.05
-10.68
-12.29
-13.78
-15.04
-16.05
-16.85
-17.58
-18.48
-19.78
-21.58
-23.77
-26.01
-27.71
-28.29
-27.25
-24.39
-19.84
-14.03
-7.57
-1.12
4.78
9.74
13.58
16.24
17.77
18.25
17.84
16.78
15.29
13.66
12.15
10.97
10.24
9.99
10.13
10.53
11.04
11.54
11.97
12.34
12.65
12.87
12.87
12.48
11.57
10.18
8.51
6.79
5.18
3.66
2.09
0.33
-1.58
-3.5
-5.16
-6.4
-7.27
-7.97
-8.74
-9.7
-10.81
-11.89
-12.78
-13.47
-14.11
-14.87
-15.92
-17.28
-18.85
-20.5
-22.05
-23.3
-24.0
-23.87
-22.58
-19.89
-15.78
-10.45
-4.34
1.97
7.91
12.99
16.93
19.61
21.09
21.48
20.99
19.85
18.24
16.37
14.4
12.53
10.98
9.9
9.38
9.39
9.82
10.52
11.31
12.04
12.54
12.7
12.45
11.82
10.89
9.81
8.7
7.6
6.51
5.34
4.04
2.58
1.02
-0.5
-1.9
-3.14
-4.28
-5.42
-6.7
-8.18
-9.8
-11.44
-12.93
-14.17
-15.18
-16.05
-16.96
-18.09
-19.55
-21.41
-23.58
-25.84
-27.82
-29.0
-28.88
-27.09
-23.56
-18.54
-12.56
-6.27
-0.28
4.99
9.31
12.58
14.79
15.94
16.09
15.33
13.87
11.99
10.01
8.22
6.83
5.99
5.72
6.0
6.73
7.73
8.78
9.64
10.14
10.19
9.85
9.26
8.55
7.83
7.09
6.27
5.29
4.14
2.89
1.63
0.46
-0.61
-1.64
-2.69
-3.81
-4.95
-6.04
-6.97
-7.72
-8.32
-8.85
-9.38
-9.99
-10.72
-11.6
-12.69
-14.02
-15.61
-17.32
-18.86
-19.83
-19.82
-18.55
-15.98
-12.29
-7.83
-3.0
1.82
6.32
10.26
13.47
15.83
17.28
17.83
17.5
16.38
14.63
12.52
10.44
8.79
7.88
7.77
8.23
8.84
9.21
9.16
8.78
8.35
8.09
8.09
8.19
8.14
7.69
6.79
5.54
4.15
2.81
1.57
0.39
-0.86
-2.28
-3.94
-5.75
-7.6
-9.32
-10.81
-12.05
-13.09
-14.03
-14.99
-16.06
-17.25
-18.5
-19.61
-20.35
-20.35
-19.32
-17.05
-13.53
-9.01
-3.91
1.23
5.95
9.88
12.89
14.98
16.25
16.83
16.8
16.21
15.12
13.62
11.93
10.32
9.05
8.3
8.05
8.13
8.26
8.2
7.87
7.34
6.79
6.39
6.11
5.85
5.38
4.53
3.28
1.74
0.08
-1.6
-3.26
-4.96
-6.72
-8.47
-10.1
-11.5
-12.64
-13.62
-14.63
-15.83
-17.29
-18.94
-20.57
-21.87
-22.55
-22.35
-21.12
-18.83
-15.54
-11.49
-6.93
-2.2
2.39
6.58
10.15
12.96
14.92
15.99
16.22
15.69
14.6
13.16
11.6
10.14
8.97
8.24
8.03
8.3
8.9
9.58
10.1
10.31
10.13
9.58
8.71
7.55
6.12
4.51
2.83
1.2
-0.23
-1.45
-2.53
-3.61
-4.78
-6.07
-7.38
-8.64
-9.8
-10.92
-12.1
-13.44
-14.93
-16.53
-18.15
-19.65
-20.9
-21.7
-21.78
-20.91
-18.91
-15.75
-11.62
-6.82
-1.74
3.27
7.91
11.93
15.1
17.18
18.08
17.79
16.52
14.59
12.42
10.36
8.68
7.5
6.8
6.55
6.66
7.05
7.62
8.27
8.85
9.22
9.32
9.1
8.62
7.92
7.08
6.13
5.12
4.08
3.06
2.11
1.19
0.24
-0.85
-2.16
-3.7
-5.38
-7.08
-8.66
-10.07
-11.33
-12.48
-13.58
-14.65
-15.73
-16.86
-18.15
-19.66
-21.34
-22.97
-24.17
-24.47
-23.46
-20.94
-16.96
-11.87
-6.2
-0.56
4.54
8.71
11.81
13.84
14.93
15.22
14.84
13.9
12.55
11.0
9.49
8.28
7.53
7.29
7.49
8.02
8.77
9.67
10.58
11.37
11.84
11.83
11.32
10.39
9.28
8.2
7.26
6.42
5.5
4.34
2.86
1.18
-0.49
-1.89
-2.87
-3.45
-3.83
-4.31
-5.07
-6.17
-7.5
-8.84
-10.02
-11.03
-11.98
-13.03
-14.31
-15.84
-17.54
-19.29
-20.94
-22.26
-22.98
-22.74
-21.25
-18.42
-14.41
-9.64
-4.6
0.27
4.69
8.53
11.68
13.99
15.32
15.59
14.87
13.42
11.66
10.05
8.91
8.42
8.56
9.15
9.92
10.63
11.14
11.46
11.7
11.98
12.29
12.51
12.45
11.95
11.0
9.76
8.44
7.22
6.14
5.1
3.97
2.66
1.15
-0.49
-2.14
-3.72
-5.13
-6.33
-7.3
-8.12
-8.92
-9.9
-11.2
-12.85
-14.77
-16.72
-18.39
-19.5
-19.76
-18.99
-17.06
-13.99
-9.91
-5.12
-0.02
4.95
9.4
13.03
15.69
17.32
17.93
17.59
16.46
14.8
12.95
11.25
9.96
9.17
8.81
8.75
8.83
8.98
9.16
9.36
9.5
9.46
9.09
8.33
7.21
5.88
4.51
3.2
2.0
0.83
-0.42
-1.81
-3.38
-5.03
-6.64
-8.06
-9.21
-10.1
-10.85
-11.67
-12.77
-14.28
-16.25
-18.57
-21.03
-23.33
-25.11
-25.95
-25.5
-23.54
-20.08
-15.42
-10.05
-4.54
0.64
5.15
8.84
11.65
13.6
14.73
15.13
14.97
14.38
13.52
12.49
11.42
10.45
9.73
9.4
9.54
10.11
10.97
11.93
12.78
13.35
13.52
13.18
12.29
10.9
9.16
7.31
5.58
4.14
3.05
2.26
1.61
0.87
-0.11
-1.43
-3.02
-4.74
-6.42
-7.96
-9.33
-10.61
-11.85
-13.09
-14.31
-15.48
-16.58
-17.7
-19.0
-20.6
-22.47
-24.36
-25.85
-26.41
-25.64
-23.37
-19.72
-15.03
-9.75
-4.29
1.0
5.85
10.05
13.41
15.76
17.01
17.2
16.49
15.18
13.59
12.03
10.73
9.83
9.38
9.4
9.84
10.62
11.62
12.62
13.39
13.76
13.64
13.09
12.24
11.22
10.13
9.02
7.93
6.91
6.02
5.23
4.46
3.53
2.31
0.77
-0.91
-2.5
-3.78
-4.72
-5.42
-6.09
-6.89
-7.86
-8.94
-10.03
-11.07
-12.06
-13.01
-13.94
-14.89
-15.91
-17.11
-18.63
-20.52
-22.69
-24.86
-26.55
-27.3
-26.69
-24.49
-20.73
-15.66
-9.73
-3.52
2.4
7.54
11.58
14.42
16.12
16.81
16.68
15.89
14.64
13.15
11.65
10.35
9.4
8.88
8.77
9.03
9.58
10.32
11.14
11.95
12.67
13.2
13.45
13.34
12.83
11.93
10.72
9.34
7.95
6.62
5.35
4.12
2.92
1.79
0.8
-0.04
-0.81
-1.59
-2.47
-3.47
-4.49
-5.43
-6.17
-6.72
-7.18
-7.68
-8.35
-9.26
-10.41
-11.76
-13.27
-14.93
-16.6
-18.09
-19.04
-19.07
-17.84
-15.26
-11.48
-6.92
-2.12
2.5
6.67
10.29
13.4
15.96
17.86
18.9
18.93
17.95
16.19
14.09
12.12
10.63
9.76
9.39
9.34
9.43
9.6
9.86
10.23
10.64
10.95
10.96
10.54
9.69
8.5
7.15
5.81
4.54
3.3
2.02
0.59
-1.01
-2.71
-4.38
-5.86
-7.05
-7.93
-8.59
-9.16
-9.79
-10.59
-11.64
-13.02
-14.77
-16.81
-18.97
-20.86
-22.01
-21.99
-20.49
-17.46
-13.11
-7.85
-2.21
3.27
8.13
12.0
14.71
16.24
16.69
16.29
15.28
13.94
12.52
11.19
10.11
9.35
8.89
8.7
8.72
8.87
9.08
9.27
9.33
9.19
8.75
8.03
7.01
5.76
4.36
2.87
1.39
-0.07
-1.46
-2.84
-4.23
-5.68
-7.14
-8.54
-9.77
-10.78
-11.61
-12.36
-13.19
-14.27
-15.67
-17.4
-19.37
-21.35
-23.03
-24.04
-24.01
-22.66
-19.9
-15.88
-10.95
-5.64
-0.46
4.19
8.07
11.11
13.32
14.72
15.29
15.0
13.91
12.21
10.27
8.52
7.33
6.87
7.06
7.67
8.43
9.18
9.86
10.5
11.08
11.49
11.51
10.99
9.88
8.3
6.52
4.81
3.32
2.01
0.75
-0.65
-2.28
-4.08
-5.88
-7.46
-8.69
-9.57
-10.22
-10.82
-11.51
-12.37
-13.42
-14.67
-16.13
-17.83
-19.71
-21.55
-23.01
-23.67
-23.1
-21.09
-17.64
-13.03
-7.73
-2.27
2.84
7.24
10.72
13.25
14.84
15.54
15.42
14.55
13.12
11.39
9.72
8.43
7.69
7.54
7.84
8.41
9.07
9.69
10.16
10.4
10.33
9.91
9.14
8.07
6.8
5.43
4.03
2.64
1.28
-0.05
-1.35
-2.6
-3.85
-5.16
-6.6
-8.2
-9.94
-11.66
-13.18
-14.37
-15.24
-15.92
-16.68
-17.73
-19.19
-20.98
-22.9
-24.62
-25.75
-25.95
-24.92
-22.55
-18.87
-14.11
-8.64
-2.89
2.74
7.87
12.2
15.51
17.66
18.65
18.6
17.75
16.46
15.04
13.75
12.73
12.03
11.59
11.38
11.38
11.61
12.07
12.73
13.46
14.11
14.49
14.5
14.12
13.37
12.32
11.03
9.56
7.95
6.26
4.57
2.98
1.54
0.27
-0.89
-2.0
-3.13
-4.27
-5.41
-6.49
-7.57
-8.75
-10.21
-12.05
-14.23
-16.46
-18.31
-19.31
-19.12
-17.61
-14.87
-11.16
-6.76
-1.96
2.95
7.7
11.96
15.44
17.91
19.27
19.6
19.06
17.92
16.39
14.67
12.94
11.37
10.13
9.37
9.18
9.49
10.11
10.79
11.25
11.34
10.98
10.22
9.16
7.92
6.56
5.17
3.73
2.3
0.87
-0.53
-1.92
-3.29
-4.63
-5.95
-7.22
-8.45
-9.68
-10.98
-12.47
-14.17
-15.99
-17.68
-18.85
-19.13
-18.3
-16.3
-13.24
-9.34
-4.82
0.04
4.92
9.46
13.25
15.95
17.42
17.73
17.11
15.9
14.35
12.67
10.99
9.44
8.16
7.29
6.94
7.06
7.52
8.08
8.48
8.51
8.05
7.15
5.94
4.6
3.27
2.02
0.81
-0.43
-1.77
-3.24
-4.78
-6.35
-7.94
-9.56
-11.27
-13.11
-15.09
-17.16
-19.3
-21.47
-23.63
-25.65
-27.27
-28.09
-27.69
-25.77
-22.32
-17.62
-12.16
-6.57
-1.37
3.14
6.83
9.75
11.96
13.48
14.31
14.4
13.82
12.72
11.38
10.1
9.11
8.49
8.18
8.02
7.9
7.79
7.76
7.88
8.14
8.39
8.43
8.07
7.28
6.14
4.86
3.6
2.42
1.26
-0.01
-1.53
-3.35
-5.39
-7.47
-9.39
-11.03
-12.35
-13.46
-14.55
-15.82
-17.41
-19.37
-21.64
-24.01
-26.25
-28.02
-29.0
-28.84
-27.34
-24.41
-20.25
-15.26
-9.94
-4.83
-0.27
3.52
6.53
8.81
10.4
11.32
11.55
11.13
10.25
9.17
8.17
7.47
7.13
7.09
7.23
7.44
7.65
7.87
8.11
8.38
8.62
8.77
8.75
8.48
7.95
7.2
6.3
5.36
4.45
3.59
2.7
1.66
0.41
-0.98
-2.37
-3.59
-4.55
-5.31
-6.03
-6.89
-7.97
-9.22
-10.51
-11.71
-12.76
-13.74
-14.79
-16.07
-17.71
-19.69
-21.88
-23.92
-25.34
-25.6
-24.35
-21.51
-17.27
-12.11
-6.49
-0.86
4.48
9.28
13.33
16.4
18.35
19.18
19.08
18.41
17.51
16.66
16.01
15.61
15.42
15.41
15.54
15.77
16.04
16.27
16.43
16.46
16.31
15.97
15.43
14.72
13.87
12.94
11.94
10.85
9.61
8.15
6.46
4.57
2.57
0.6
-1.24
-2.88
-4.32
-5.6
-6.78
-7.93
-9.08
-10.3
-11.63
-13.11
-14.7
-16.25
-17.5
-18.08
-17.67
-16.07
-13.28
-9.54
-5.22
-0.7
3.7
7.79
11.46
14.59
17.06
18.72
19.44
19.21
18.15
16.54
14.72
13.0
11.59
10.61
10.09
10.01
10.3
10.82
11.38
11.77
11.8
11.41
10.59
9.42
8.04
6.52
4.97
3.46
2.09
0.9
-0.12
-1.08
-2.17
-3.51
-5.19
-7.09
-9.0
-10.67
-11.91
-12.74
-13.34
-14.05
-15.19
-17.01
-19.48
-22.32
-25.04
-27.02
-27.69
-26.68
-23.85
-19.4
-13.8
-7.7
-1.8
3.39
7.55
10.61
12.69
13.94
14.49
14.44
13.85
12.88
11.74
10.66
9.85
9.43
9.41
9.69
10.18
10.75
11.26
11.65
11.84
11.76
11.38
10.64
9.52
8.06
6.38
4.65
3.06
1.73
0.67
-0.22
-1.08
-2.08
-3.29
-4.71
-6.29
-7.96
-9.62
-11.17
-12.55
-13.76
-14.85
-15.95
-17.24
-18.84
-20.77
-22.89
-24.9
-26.35
-26.72
-25.62
-22.82
-18.44
-12.86
-6.68
-0.55
5.0
9.65
13.32
15.99
17.72
18.51
18.39
17.46
15.93
14.15
12.45
11.08
10.15
9.6
9.34
9.26
9.29
9.37
9.45
9.51
9.52
9.45
9.24
8.79
7.95
6.63
4.85
2.78
0.7
-1.09
-2.46
-3.43
-4.23
-5.11
-6.25
-7.68
-9.26
-10.79
-12.13
-13.22
-14.14
-15.03
-16.02
-17.15
-18.4
-19.78
-21.31
-23.03
-24.87
-26.55
-27.57
-27.35
-25.43
-21.72
-16.52
-10.46
-4.24
1.55
6.55
10.62
13.73
15.83
16.9
16.96
16.2
14.93
13.56
12.46
11.81
11.61
11.67
11.81
11.91
12.02
12.23
12.62
13.16
13.66
13.88
13.63
12.84
11.59
10.06
8.45
6.92
5.56
4.39
3.39
2.49
1.61
0.63
-0.56
-1.99
-3.58
-5.17
-6.58
-7.73
-8.65
-9.52
-10.53
-11.85
-13.45
-15.21
-16.84
-18.09
-18.66
-18.34
-16.98
-14.51
-11.06
-6.87
-2.32
2.18
6.33
9.95
12.93
15.2
16.68
17.29
17.06
16.13
14.76
13.24
11.83
10.65
9.71
8.99
8.44
8.07
7.87
7.82
7.87
7.96
8.02
7.94
7.61
6.94
5.91
4.6
3.15
1.7
0.29
-1.16
-2.77
-4.64
-6.69
-8.75
-10.59
-12.12
-13.4
-14.64
-16.03
-17.68
-19.46
-21.04
-22.01
-22.0
-20.75
-18.2
-14.47
-9.83
-4.65
0.62
5.54
9.76
13.06
15.37
16.71
17.17
16.81
15.76
14.19
12.33
10.52
9.04
8.08
7.65
7.64
7.83
8.04
8.11
7.98
7.62
7.02
6.24
5.36
4.45
3.53
2.51
1.25
-0.37
-2.3
-4.41
-6.44
-8.27
-9.85
-11.29
-12.74
-14.32
-16.08
-18.0
-20.06
-22.23
-24.35
-26.13
-27.13
-26.89
-25.08
-21.69
-16.98
-11.45
-5.63
-0.0
5.09
9.42
12.81
15.16
16.44
16.69
16.08
14.81
13.21
11.56
10.11
9.05
8.42
8.19
8.27
8.52
8.88
9.26
9.58
9.75
9.64
9.14
8.24
7.0
5.59
4.15
2.74
1.33
-0.22
-1.99
-3.98
-6.08
-8.12
-9.99
-11.72
-13.4
-15.23
-17.26
-19.47
-21.67
-23.58
-24.88
-25.24
-24.38
-22.14
-18.53
-13.74
-8.19
-2.39
3.17
8.1
12.19
15.33
17.49
18.66
18.89
18.25
16.91
15.13
13.19
11.41
10.05
9.22
8.92
8.98
9.19
9.34
9.29
8.99
8.47
7.75
6.81
5.66
4.29
2.78
1.22
-0.34
-1.89
-3.51
-5.23
-7.06
-8.93
-10.7
-12.33
-13.84
-15.4
-17.2
-19.39
-21.96
-24.66
-27.03
-28.47
-28.4
-26.45
-22.63
-17.31
-11.16
-4.91
0.84
5.75
9.69
12.62
14.54
15.42
15.24
14.1
12.29
10.24
8.42
7.24
6.85
7.21
8.04
8.96
9.65
9.92
9.83
9.54
9.26
9.03
8.78
8.29
7.39
6.03
4.3
2.46
0.74
-0.71
-1.85
-2.82
-3.76
-4.82
-6.1
-7.58
-9.22
-10.94
-12.69
-14.38
-15.9
-16.98
-17.28
-16.45
-14.3
-10.87
-6.5
-1.66
3.16
7.65
11.62
14.96
17.56
19.25
19.91
19.48
18.15
16.24
14.16
12.32
10.97
10.22
10.01
10.2
10.56
10.88
11.03
10.93
10.58
10.01
9.24
8.26
7.07
5.65
4.09
2.49
0.94
-0.45
-1.73
-3.0
-4.42
-6.15
-8.23
-10.61
-13.06
-15.24
-16.78
-17.37
-16.83
-15.14
-12.45
-8.99
-5.03
-0.83
3.35
7.25
10.65
13.3
15.07
15.89
15.77
14.82
13.2
11.12
8.85
6.71
4.98
3.83
3.31
3.26
3.44
3.62
3.65
3.48
3.14
2.66
2.05
1.23
0.14
-1.28
-3.03
-5.04
-7.17
-9.26
-11.19
-12.89
-14.4
-15.83
-17.37
-19.1
-20.97
-22.66
-23.7
-23.54
-21.77
-18.25
-13.15
-6.86
0.13
7.29
14.11
20.1
24.78
27.72
28.71
27.76
25.15
21.3
16.71
11.78
6.89
2.29
-1.77
-5.08
-7.52
-9.1
-9.93
-10.23
-10.23
-10.12
-10.02
-9.95
-9.9
-9.88
-9.95
-10.22
-10.81
-11.8
-13.13
-14.6
-15.91
-16.81
-17.17
-17.05
-16.7
-16.45
-16.6
-17.36
-18.81
-20.79
-22.93
-24.64
-25.23
-24.11
-21.02
-16.08
-9.82
-2.99
3.68
9.59
14.42
18.08
20.6
22.1
22.74
22.69
22.19
21.5
20.84
20.42
20.35
20.7
21.46
22.54
23.8
25.08
26.25
27.16
27.7
27.79
27.4
26.57
25.39
23.97
22.36
20.56
18.54
16.21
13.56
10.64
7.58
4.5
1.51
-1.37
-4.21
-7.1
-10.13
-13.36
-16.83
-20.51
-24.24
-27.76
-30.62
-32.31
-32.34
-30.48
-26.81
-21.76
-16.03
-10.38
-5.4
-1.41
1.55
3.59
4.81
5.29
5.08
4.27
3.07
1.73
0.53
-0.4
-0.97
-1.21
-1.13
-0.76
-0.15
0.61
1.38
2.01
2.42
2.58
2.52
2.27
1.76
0.93
-0.24
-1.67
-3.2
-4.69
-6.06
-7.35
-8.64
-9.97
-11.29
-12.46
-13.41
-14.16
-14.88
-15.76
-16.94
-18.34
-19.69
-20.55
-20.48
-19.13
-16.36
-12.32
-7.41
-2.12
3.03
7.64
11.5
14.54
16.81
18.33
19.14
19.24
18.69
17.57
16.05
14.31
12.52
10.89
9.59
8.76
8.46
8.64
9.13
9.71
10.18
10.43
10.46
10.28
9.93
9.38
8.56
7.4
5.93
4.24
2.49
0.81
-0.71
-2.05
-3.24
-4.34
-5.46
-6.74
-8.27
-10.04
-11.84
-13.26
-13.74
-12.8
-10.21
-6.07
-0.79
5.06
10.89
16.26
20.86
24.49
27.03
28.45
28.74
28.0
26.4
24.18
21.61
18.94
16.39
14.12
12.23
10.77
9.76
9.18
8.94
8.92
8.93
8.79
8.33
7.48
6.2
4.5
2.45
0.08
-2.53
-5.3
-8.12
-10.89
-13.49
-15.8
-17.75
-19.33
-20.63
-21.81
-23.08
-24.58
-26.36
-28.35
-30.41
-32.33
-33.87
-34.76
-34.66
-33.29
-30.42
-26.07
-20.52
-14.29
-8.03
-2.3
2.52
6.28
8.99
10.77
11.67
11.74
11.07
9.85
8.36
6.96
5.93
5.42
5.4
5.69
6.12
6.54
6.92
7.26
7.57
7.85
8.04
8.1
8.03
7.84
7.56
7.17
6.62
5.86
4.87
3.71
2.48
1.29
0.16
-0.99
-2.25
-3.63
-5.05
-6.36
-7.41
-8.2
-8.92
-9.87
-11.3
-13.33
-15.84
-18.6
-21.31
-23.71
-25.51
-26.42
-26.07
-24.18
-20.62
-15.56
-9.43
-2.89
3.45
9.08
13.75
17.38
19.97
21.55
22.1
21.64
20.3
18.37
16.25
14.36
12.97
12.2
12.0
12.21
12.65
13.14
13.54
13.7
13.53
12.97
12.11
11.14
10.28
9.66
9.22
8.76
8.07
7.04
5.79
4.54
3.54
2.89
2.47
2.04
1.41
0.51
-0.54
-1.55
-2.41
-3.16
-3.97
-4.96
-6.18
-7.54
-8.92
-10.26
-11.6
-13.0
-14.36
-15.38
-15.55
-14.4
-11.66
-7.46
-2.33
3.05
8.01
12.15
15.34
17.67
19.22
20.04
20.09
19.39
18.07
16.38
14.67
13.17
11.98
10.99
10.09
9.2
8.35
7.69
7.32
7.26
7.35
7.34
6.98
6.17
4.94
3.42
1.79
0.19
-1.35
-2.82
-4.26
-5.7
-7.13
-8.59
-10.15
-11.87
-13.83
-16.0
-18.33
-20.7
-23.04
-25.29
-27.35
-29.1
-30.25
-30.52
-29.61
-27.4
-24.02
-19.78
-15.09
-10.35
-5.87
-1.84
1.56
4.18
5.87
6.59
6.41
5.52
4.19
2.69
1.2
-0.14
-1.21
-1.87
-2.02
-1.64
-0.89
-0.05
0.62
0.97
1.02
0.88
0.65
0.32
-0.22
-1.11
-2.37
-3.89
-5.42
-6.71
-7.58
-8.08
-8.37
-8.72
-9.4
-10.57
-12.23
-14.25
-16.38
-18.31
-19.73
-20.37
-19.99
-18.45
-15.71
-11.81
-6.93
-1.42
4.28
9.63
14.12
17.37
19.2
19.69
19.1
17.75
15.96
13.98
11.98
10.1
8.46
7.19
6.36
5.96
5.9
6.02
6.17
6.27
6.32
6.36
6.42
6.45
6.38
6.09
5.54
4.75
3.78
2.7
1.49
0.09
-1.54
-3.36
-5.27
-7.15
-9.01
-10.96
-13.15
-15.55
-17.94
-19.8
-20.57
-19.84
-17.49
-13.74
-9.03
-3.85
1.38
6.41
10.99
14.91
17.86
19.59
19.95
18.99
16.98
14.31
11.41
8.69
6.44
4.87
4.06
4.01
4.52
5.32
6.07
6.47
6.41
5.92
5.13
4.18
3.11
1.89
0.48
-1.08
-2.69
-4.2
-5.55
-6.79
-8.12
-9.69
-11.61
-13.8
-16.1
-18.4
-20.64
-22.86
-25.0
-26.89
-28.11
-28.22
-26.84
-23.9
-19.62
-14.47
-8.98
-3.6
1.36
5.7
9.27
11.88
13.37
13.67
12.84
11.15
9.02
6.92
5.27
4.31
4.1
4.51
5.33
6.31
7.2
7.85
8.16
8.12
7.79
7.26
6.62
5.93
5.19
4.38
3.43
2.28
0.9
-0.68
-2.36
-4.02
-5.55
-6.92
-8.22
-9.57
-11.15
-13.01
-15.07
-17.03
-18.47
-18.88
-17.86
-15.2
-10.99
-5.6
0.42
6.45
11.92
16.45
19.79
21.79
22.46
21.86
20.26
18.01
15.56
13.33
11.57
10.35
9.56
9.04
8.66
8.37
8.2
8.21
8.4
8.7
8.98
9.12
9.01
8.61
7.87
6.77
5.26
3.36
1.15
-1.15
-3.3
-5.13
-6.63
-8.0
-9.52
-11.35
-13.41
-15.31
-16.5
-16.52
-15.09
-12.29
-8.39
-3.76
1.26
6.35
11.22
15.58
19.08
21.47
22.52
22.22
20.75
18.44
15.77
13.25
11.25
9.96
9.29
9.0
8.81
8.55
8.2
7.81
7.44
7.04
6.49
5.65
4.44
2.94
1.28
-0.43
-2.13
-3.85
-5.63
-7.49
-9.4
-11.32
-13.21
-15.13
-17.11
-19.12
-20.97
-22.28
-22.55
-21.35
-18.45
-14.03
-8.56
-2.7
2.95
7.94
12.07
15.28
17.54
18.8
18.98
18.08
16.25
13.84
11.29
9.01
7.3
6.25
5.8
5.83
6.19
6.78
7.5
8.23
8.82
9.13
9.04
8.51
7.55
6.23
4.58
2.66
0.56
-1.58
-3.61
-5.44
-7.05
-8.53
-10.03
-11.64
-13.43
-15.43
-17.63
-20.01
-22.47
-24.74
-26.36
-26.75
-25.44
-22.21
-17.28
-11.26
-4.92
1.0
5.99
9.81
12.41
13.84
14.2
13.57
12.15
10.21
8.11
6.16
4.61
3.56
2.99
2.83
3.01
3.42
3.99
4.55
4.95
5.02
4.67
3.88
2.67
1.13
-0.61
-2.41
-4.14
-5.67
-6.97
-8.07
-9.1
-10.16
-11.33
-12.51
-13.58
-14.36
-14.81
-15.03
-15.22
-15.65
-16.48
-17.71
-19.15
-20.48
-21.25
-21.0
-19.39
-16.24
-11.66
-5.96
0.35
6.73
12.65
17.69
21.59
24.24
25.67
26.04
25.58
24.56
23.22
21.75
20.31
18.99
17.88
17.01
16.42
16.05
15.81
15.55
15.14
14.52
13.69
12.77
11.9
11.13
10.4
9.51
8.2
6.33
3.96
1.4
-0.95
-2.75
-3.88
-4.46
-4.77
-5.06
-5.5
-6.12
-6.93
-8.0
-9.46
-11.45
-13.92
-16.56
-18.88
-20.26
-20.22
-18.57
-15.43
-11.14
-6.14
-0.85
4.37
9.16
13.15
16.02
17.51
17.65
16.66
14.96
13.02
11.18
9.61
8.33
7.32
6.55
6.06
5.87
5.94
6.14
6.26
6.11
5.61
4.81
3.83
2.85
1.92
0.99
-0.11
-1.54
-3.35
-5.43
-7.53
-9.38
-10.85
-12.02
-13.2
-14.77
-17.02
-19.99
-23.43
-26.89
-29.83
-31.77
-32.37
-31.42
-28.81
-24.59
-18.92
-12.2
-5.03
1.86
7.75
12.09
14.69
15.67
15.4
14.31
12.83
11.23
9.63
8.11
6.7
5.48
4.49
3.72
3.14
2.67
2.24
1.83
1.45
1.12
0.8
0.38
-0.2
-0.96
-1.71
-2.2
-2.19
-1.65
-0.79
-0.01
0.24
-0.26
-1.46
-3.04
-4.54
-5.54
-5.75
-5.02
-3.28
-0.51
3.27
7.95
13.22
18.58
23.38
27.02
29.07
29.41
28.21
25.81
22.59
18.86
14.82
10.63
6.43
2.41
-1.21
-4.25
-6.56
-8.1
-8.9
-9.05
-8.74
-8.25
-7.86
-7.84
-8.35
-9.44
-10.99
-12.76
-14.5
-16.0
-17.18
-18.14
-19.1
-20.3
-21.92
-23.93
-26.08
-27.97
-29.13
-29.19
-27.9
-25.27
-21.51
-16.91
-11.76
-6.34
-0.85
4.41
9.12
12.86
15.29
16.29
16.0
14.83
13.26
11.69
10.36
9.31
8.54
8.02
7.78
7.81
8.09
8.5
8.85
8.9
8.41
7.21
5.26
2.66
-0.3
-3.2
-5.69
-7.58
-8.95
-10.07
-11.28
-12.85
-14.86
-17.26
-19.82
-22.19
-23.91
-24.44
-23.27
-20.12
-15.05
-8.53
-1.38
5.53
11.51
16.23
19.67
22.0
23.42
24.06
23.98
23.26
22.04
20.54
19.0
17.55
16.23
15.01
13.84
12.74
11.82
11.2
10.9
10.82
10.66
10.13
9.0
7.27
5.12
2.81
0.55
-1.58
-3.59
-5.54
-7.46
-9.31
-11.03
-12.56
-13.89
-15.04
-16.04
-16.93
-17.77
-18.68
-19.82
-21.24
-22.81
-24.18
-24.8
-24.13
-21.84
-17.97
-12.87
-7.17
-1.49
3.68
8.02
11.41
13.82
15.24
15.7
15.24
13.99
12.15
10.03
7.96
6.23
5.06
4.53
4.6
5.19
6.17
7.39
8.65
9.74
10.47
10.7
10.41
9.66
8.63
7.45
6.2
4.88
3.41
1.76
-0.08
-2.03
-3.97
-5.75
-7.32
-8.65
-9.81
-10.9
-12.06
-13.36
-14.86
-16.48
-18.03
-19.2
-19.55
-18.69
-16.39
-12.66
-7.81
-2.33
3.21
8.34
12.66
15.98
18.18
19.25
19.24
18.27
16.54
14.28
11.79
9.37
7.31
5.84
5.05
4.89
5.12
5.45
5.65
5.61
5.36
5.01
4.63
4.21
3.62
2.72
1.42
-0.26
-2.17
-4.13
-5.96
-7.57
-8.96
-10.14
-11.21
-12.24
-13.34
-14.62
-16.17
-17.97
-19.84
-21.37
-22.01
-21.25
-18.8
-14.73
-9.49
-3.72
1.93
7.0
11.26
14.59
16.95
18.29
18.55
17.8
16.23
14.18
12.04
10.18
8.85
8.12
7.96
8.17
8.52
8.75
8.66
8.15
7.31
6.27
5.14
3.97
2.71
1.25
-0.48
-2.43
-4.47
-6.42
-8.14
-9.62
-10.97
-12.35
-13.87
-15.61
-17.51
-19.52
-21.51
-23.36
-24.83
-25.58
-25.19
-23.34
-19.88
-15.02
-9.27
-3.27
2.32
7.06
10.76
13.41
15.07
15.78
15.56
14.48
12.74
10.72
8.83
7.45
6.72
6.6
6.86
7.28
7.66
7.97
8.23
8.48
8.69
8.8
8.7
8.34
7.69
6.74
5.51
4.03
2.37
0.65
-0.98
-2.39
-3.49
-4.3
-4.93
-5.56
-6.36
-7.45
-8.85
-10.48
-12.1
-13.35
-13.81
-13.14
-11.14
-7.9
-3.72
0.91
5.49
9.59
12.94
15.44
17.08
17.91
17.94
17.16
15.61
13.39
10.73
8.01
5.68
4.07
3.31
3.3
3.8
4.51
5.24
5.92
6.54
7.05
7.34
7.32
6.98
6.45
5.93
5.55
5.25
4.81
3.88
2.22
-0.23
-3.29
-6.65
-10.03
-13.26
-16.35
-19.34
-22.29
-25.01
-27.14
-28.16
-27.61
-25.28
-21.29
-16.1
-10.33
-4.55
0.83
5.62
9.72
13.04
15.44
16.71
16.68
15.33
12.87
9.72
6.44
3.62
1.7
0.86
0.98
1.7
2.62
3.43
3.98
4.3
4.45
4.48
4.38
4.03
3.35
2.25
0.74
-1.12
-3.18
-5.27
-7.2
-8.84
-10.18
-11.34
-12.53
-13.94
-15.6
-17.36
-18.91
-19.89
-20.01
-19.16
-17.37
-14.74
-11.38
-7.43
-3.03
1.56
5.98
9.87
12.88
14.84
15.72
15.61
14.67
13.08
11.05
8.81
6.6
4.68
3.21
2.27
1.84
1.79
1.98
2.24
2.45
2.52
2.38
1.94
1.16
-0.01
-1.5
-3.16
-4.82
-6.34
-7.67
-8.91
-10.2
-11.71
-13.5
-15.53
-17.68
-19.8
-21.61
-22.81
-23.03
-22.0
-19.63
-16.08
-11.7
-6.94
-2.2
2.22
6.17
9.47
11.95
13.43
13.78
13.03
11.39
9.23
6.99
5.04
3.66
2.95
2.83
3.17
3.77
4.42
5.01
5.46
5.72
5.73
5.42
4.68
3.45
1.76
-0.25
-2.34
-4.28
-5.94
-7.39
-8.84
-10.6
-12.85
-15.56
-18.47
-21.08
-22.83
-23.2
-21.89
-18.87
-14.42
-9.04
-3.33
2.19
7.17
11.39
14.74
17.11
18.41
18.56
17.64
15.87
13.65
11.4
9.46
8.02
7.09
6.61
6.5
6.68
7.09
7.61
8.1
8.37
8.22
7.54
6.35
4.76
3.0
1.27
-0.31
-1.75
-3.18
-4.73
-6.52
-8.59
-10.92
-13.48
-16.16
-18.82
-21.13
-22.64
-22.86
-21.43
-18.25
-13.56
-7.88
-1.84
4.0
9.24
13.6
16.95
19.17
20.16
19.92
18.6
16.53
14.16
11.96
10.25
9.15
8.63
8.51
8.58
8.67
8.64
8.44
8.1
7.69
7.27
6.86
6.36
5.6
4.42
2.79
0.84
-1.24
-3.27
-5.25
-7.31
-9.59
-12.19
-15.01
-17.82
-20.4
-22.53
-24.0
-24.58
-23.93
-21.73
-17.8
-12.28
-5.71
1.11
7.38
12.51
16.25
18.6
19.67
19.57
18.38
16.25
13.49
10.6
8.13
6.49
5.81
5.9
6.37
6.83
7.05
7.04
6.97
7.01
7.21
7.42
7.37
6.76
5.49
3.63
1.47
-0.66
-2.54
-4.11
-5.47
-6.85
-8.42
-10.31
-12.57
-15.13
-17.89
-20.61
-22.95
-24.45
-24.59
-22.98
-19.5
-14.37
-8.12
-1.48
4.87
10.44
15.03
18.57
21.14
22.73
23.33
22.92
21.58
19.54
17.11
14.66
12.53
10.91
9.9
9.46
9.51
9.87
10.35
10.79
11.02
10.94
10.53
9.79
8.72
7.33
5.6
3.56
1.28
-1.12
-3.47
-5.68
-7.73
-9.73
-11.78
-13.93
-16.14
-18.33
-20.42
-22.35
-24.05
-25.28
-25.64
-24.62
-21.83
-17.21
-11.12
-4.24
2.6
8.7
13.69
17.43
20.02
21.54
22.06
21.63
20.34
18.38
16.08
13.89
12.18
11.26
11.15
11.6
12.24
12.65
12.65
12.33
11.95
11.76
11.78
11.74
11.2
9.77
7.34
4.18
0.82
-2.23
-4.68
-6.54
-8.05
-9.45
-10.89
-12.35
-13.82
-15.35
-17.08
-19.12
-21.34
-23.29
-24.3
-23.68
-21.11
-16.72
-11.11
-5.04
0.81
6.03
10.45
14.03
16.69
18.33
18.82
18.18
16.64
14.59
12.49
10.73
9.54
8.97
8.93
9.26
9.78
10.33
10.77
10.99
10.9
10.4
9.47
8.11
6.38
4.46
2.49
0.65
-1.0
-2.46
-3.85
-5.3
-6.85
-8.48
-10.02
-11.4
-12.61
-13.79
-15.18
-16.98
-19.24
-21.81
-24.31
-26.14
-26.71
-25.53
-22.38
-17.46
-11.32
-4.66
1.81
7.61
12.51
16.43
19.31
21.03
21.48
20.69
18.92
16.61
14.27
12.32
10.96
10.22
9.98
10.08
10.41
10.9
11.44
11.94
12.28
12.33
12.01
11.24
10.05
8.52
6.8
5.04
3.36
1.77
0.14
-1.67
-3.76
-6.11
-8.55
-10.87
-12.88
-14.49
-15.75
-16.77
-17.71
-18.72
-19.95
-21.59
-23.78
-26.47
-29.35
-31.8
-33.05
-32.42
-29.62
-24.84
-18.67
-11.87
-5.15
1.05
6.52
11.17
14.92
17.59
19.08
19.39
18.69
17.31
15.66
14.08
12.85
12.16
12.09
12.62
13.59
14.74
15.74
16.32
16.37
15.9
15.04
13.92
12.65
11.24
9.68
7.99
6.2
4.36
2.54
0.79
-0.86
-2.42
-3.9
-5.36
-6.83
-8.3
-9.74
-11.11
-12.36
-13.49
-14.54
-15.52
-16.45
-17.37
-18.38
-19.61
-21.2
-23.15
-25.18
-26.77
-27.25
-26.05
-22.94
-18.1
-12.06
-5.5
0.97
6.9
12.07
16.36
19.64
21.81
22.74
22.45
21.16
19.31
17.42
15.97
15.21
15.17
15.64
16.36
17.1
17.79
18.43
19.08
19.72
20.2
20.3
19.81
18.58
16.62
14.1
11.32
8.58
6.16
4.18
2.62
1.34
0.16
-1.05
-2.39
-3.81
-5.25
-6.63
-7.96
-9.32
-10.83
-12.6
-14.68
-17.01
-19.45
-21.82
-23.87
-25.27
-25.65
-24.67
-22.13
-18.14
-13.11
-7.72
-2.67
1.56
4.74
6.91
8.2
8.73
8.58
7.89
6.82
5.65
4.67
4.08
3.93
4.2
4.79
5.63
6.65
7.74
8.72
9.41
9.67
9.47
8.89
8.01
6.92
5.64
4.18
2.59
0.98
-0.5
-1.74
-2.77
-3.66
-4.6
-5.73
-7.12
-8.72
-10.42
-12.04
-13.46
-14.63
-15.58
-16.42
-17.33
-18.48
-19.98
-21.86
-24.03
-26.16
-27.83
-28.47
-27.59
-24.93
-20.58
-15.01
-8.86
-2.83
2.59
7.14
10.79
13.59
15.59
16.75
17.06
16.53
15.3
13.66
11.93
10.46
9.51
9.19
9.46
10.14
10.95
11.65
12.11
12.3
12.26
12.07
11.71
11.11
10.14
8.75
7.03
5.18
3.41
1.9
0.66
-0.43
-1.53
-2.79
-4.23
-5.84
-7.54
-9.22
-10.83
-12.32
-13.62
-14.67
-15.46
-16.02
-16.45
-16.93
-17.69
-18.89
-20.54
-22.45
-24.19
-25.23
-25.05
-23.36
-20.1
-15.52
-10.01
-4.06
1.91
7.51
12.39
16.24
18.83
20.09
20.09
19.1
17.48
15.58
13.71
12.04
10.73
9.85
9.45
9.52
9.98
10.65
11.3
11.73
11.8
11.51
10.96
10.3
9.65
9.02
8.32
7.44
6.28
4.86
3.31
1.77
0.38
-0.84
-1.96
-3.07
-4.22
-5.41
-6.59
-7.67
-8.65
-9.57
-10.48
-11.46
-12.52
-13.65
-14.86
-16.16
-17.6
-19.13
-20.54
-21.47
-21.39
-19.87
-16.67
-11.99
-6.37
-0.54
4.82
9.33
12.89
15.62
17.65
18.99
19.56
19.27
18.19
16.53
14.66
12.93
11.57
10.6
9.99
9.64
9.53
9.66
10.0
10.42
10.71
10.64
10.07
9.01
7.6
5.99
4.3
2.51
0.59
-1.54
-3.84
-6.16
-8.36
-10.32
-12.03
-13.51
-14.83
-16.01
-17.09
-18.1
-19.18
-20.47
-22.04
-23.82
-25.47
-26.45
-26.2
-24.34
-20.82
-15.92
-10.24
-4.42
0.97
5.52
9.05
11.51
12.94
13.45
13.14
12.14
10.67
8.98
7.4
6.26
5.78
6.01
6.78
7.77
8.61
9.09
9.17
9.03
8.83
8.66
8.48
8.1
7.34
6.1
4.43
2.5
0.48
-1.47
-3.26
-4.89
-6.4
-7.83
-9.24
-10.69
-12.28
-14.09
-16.21
-18.61
-21.07
-23.26
-24.66
-24.84
-23.49
-20.58
-16.37
-11.28
-5.82
-0.43
4.57
8.97
12.6
15.33
17.0
17.54
17.02
15.66
13.78
11.79
10.03
8.72
7.99
7.79
8.01
8.45
8.94
9.34
9.61
9.78
9.9
10.01
10.02
9.78
9.1
7.82
5.95
3.67
1.28
-0.91
-2.71
-4.1
-5.26
-6.44
-7.87
-9.62
-11.69
-14.0
-16.41
-18.73
-20.63
-21.62
-21.18
-18.95
-14.92
-9.47
-3.31
2.79
8.25
12.76
16.25
18.76
20.29
20.77
20.15
18.51
16.09
13.28
10.53
8.19
6.48
5.44
5.01
5.01
5.26
5.56
5.73
5.64
5.15
4.25
2.95
1.34
-0.45
-2.27
-3.99
-5.54
-6.89
-8.12
-9.31
-10.58
-12.04
-13.75
-15.72
-17.92
-20.28
-22.72
-25.14
-27.43
-29.38
-30.71
-31.07
-30.12
-27.63
-23.61
-18.31
-12.18
-5.8
0.28
5.62
9.95
13.14
15.16
16.03
15.88
14.85
13.23
11.36
9.66
8.5
8.13
8.58
9.64
10.93
12.03
12.68
12.79
12.5
12.02
11.5
10.97
10.3
9.38
8.17
6.72
5.19
3.67
2.21
0.77
-0.71
-2.27
-3.92
-5.66
-7.49
-9.45
-11.55
-13.7
-15.64
-16.98
-17.26
-16.14
-13.49
-9.5
-4.6
0.65
5.72
10.22
13.98
16.92
19.02
20.19
20.35
19.52
17.88
15.79
13.71
12.02
10.87
10.21
9.83
9.54
9.22
8.97
8.9
9.11
9.52
9.89
9.93
9.36
8.09
6.21
3.98
1.72
-0.36
-2.18
-3.83
-5.43
-7.12
-8.97
-11.0
-13.2
-15.53
-17.87
-19.97
-21.41
-21.71
-20.47
-17.48
-12.89
-7.13
-0.83
5.34
10.8
15.17
18.24
20.0
20.54
20.05
18.73
16.81
14.53
12.16
10.0
8.33
7.32
6.96
7.1
7.45
7.76
7.88
7.78
7.5
7.08
6.44
5.45
3.97
1.98
-0.42
-3.03
-5.65
-8.16
-10.54
-12.85
-15.17
-17.57
-20.09
-22.71
-25.42
-28.1
-30.48
-32.17
-32.66
-31.48
-28.42
-23.62
-17.59
-11.01
-4.57
1.22
6.07
9.87
12.53
13.98
14.2
13.28
11.56
9.51
7.66
6.36
5.73
5.65
5.91
6.3
6.72
7.08
7.32
7.36
7.12
6.63
5.98
5.29
4.6
3.81
2.73
1.22
-0.68
-2.77
-4.71
-6.19
-7.14
-7.67
-8.05
-8.62
-9.62
-11.18
-13.31
-15.89
-18.66
-21.21
-23.07
-23.73
-22.83
-20.24
-16.11
-10.82
-4.88
1.2
6.94
11.97
15.98
18.76
20.23
20.43
19.58
18.0
16.08
14.15
12.5
11.3
10.64
10.51
10.83
11.48
12.25
12.93
13.35
13.41
13.11
12.48
11.57
10.39
8.92
7.22
5.42
3.67
2.08
0.64
-0.82
-2.48
-4.45
-6.67
-8.83
-10.59
-11.69
-12.12
-12.15
-12.22
-12.79
-14.14
-16.32
-19.1
-22.04
-24.59
-26.22
-26.49
-25.17
-22.25
-17.94
-12.6
-6.68
-0.64
5.08
10.11
14.16
17.06
18.75
19.31
18.93
17.87
16.46
15.02
13.88
13.24
13.2
13.67
14.44
15.21
15.78
16.07
16.09
15.96
15.72
15.34
14.7
13.68
12.21
10.38
8.33
6.25
4.28
2.44
0.69
-1.03
-2.76
-4.44
-5.94
-7.14
-8.0
-8.63
-9.27
-10.21
-11.69
-13.78
-16.39
-19.25
-21.96
-24.02
-24.93
-24.28
-21.89
-17.88
-12.66
-6.8
-0.9
4.56
9.31
13.26
16.38
18.65
20.02
20.45
19.94
18.62
16.72
14.58
12.58
11.03
10.12
9.88
10.15
10.72
11.37
11.94
12.4
12.69
12.77
12.53
11.82
10.52
8.64
6.31
3.78
1.3
-0.89
-2.72
-4.21
-5.5
-6.71
-7.94
-9.21
-10.52
-11.83
-13.08
-14.19
-15.12
-15.84
-16.44
-17.08
-18.0
-19.45
-21.53
-24.15
-26.99
-29.53
-31.14
-31.3
-29.64
-26.12
-21.01
-14.83
-8.18
-1.67
4.22
9.12
12.8
15.16
16.26
16.24
15.35
13.94
12.34
10.85
9.62
8.74
8.21
7.96
7.85
7.71
7.39
6.82
5.97
4.82
3.41
1.74
-0.21
-2.5
-5.21
-8.19
-11.21
-14.11
-16.85
-19.47
-21.97
-24.34
-26.57
-28.62
-30.06
-30.44
-29.62
-27.89
-25.67
-23.31
-21.01
-18.78
-16.42
-13.08
-8.04
-1.38
5.98
12.8
18.33
22.55
26.12
30.05
35.93
44.72
56.19
68.95
81.48
92.81
102.58
110.58
111.72
102.52
83.87
61.22
40.46
24.4
12.46
1.95
-9.94
-24.71
-40.87
-55.3
-65.08
-69.03
-67.99
-64.07
-59.77
-56.96
-56.46
-57.36
-58.18
-57.72
-55.79
-52.81
-49.37
-46.29
-44.11
-43.21
-43.49
-44.99
-47.95
-52.24
-56.38
-57.09
-51.15
-35.72
-11.12
19.1
49.06
72.85
86.79
89.55
84.48
75.72
66.47
57.97
50.3
43.38
37.71
34.3
34.04
37.08
42.07
46.62
47.91
43.87
34.06
19.94
4.42
-9.23
-18.58
-23.22
-24.5
-24.68
-25.61
-27.88
-30.82
-33.08
-33.61
-32.13
-29.37
-26.43
-24.19
-22.99
-22.39
-21.68
-20.19
-17.7
-14.34
-10.68
-7.33
-4.71
-2.87
-1.52
-0.25
1.22
2.86
4.4
5.45
5.72
5.22
4.23
3.19
2.37
1.81
1.3
0.59
-0.41
-1.46
-2.09
-1.8
-0.28
2.35
5.66
8.93
11.48
12.85
12.92
11.84
9.98
7.73
5.39
3.13
0.96
-1.11
-3.06
-4.79
-6.17
-7.06
-7.38
-7.15
-6.51
-5.68
-4.9
-4.33
-4.1
-4.22
-4.66
-5.31
-6.06
-6.83
-7.49
-8.26
-9.16
-10.11
-11.0
-11.74
-12.3
-12.72
-13.16
-13.77
-14.7
-15.96
-17.56
-19.46
-21.61
-23.91
-26.09
-27.72
-28.15
-26.74
-23.01
-16.97
-9.13
-0.42
8.13
15.63
21.59
25.87
28.59
29.94
30.1
29.17
27.27
24.63
21.59
18.54
15.89
13.88
12.66
12.18
12.32
12.86
13.57
14.21
14.56
14.53
14.05
13.18
11.96
10.47
8.76
6.88
4.88
2.83
0.77
-1.25
-3.21
-5.11
-6.9
-8.53
-9.96
-11.21
-12.45
-13.92
-15.83
-18.16
-20.59
-22.52
-23.21
-22.03
-18.69
-13.35
-6.51
1.1
8.72
15.71
21.55
25.92
28.67
29.8
29.48
28.0
25.76
23.13
20.45
18.0
15.98
14.51
13.67
13.39
13.52
13.9
14.3
14.56
14.57
14.23
13.47
12.29
10.71
8.8
6.68
4.46
2.21
-0.02
-2.21
-4.35
-6.42
-8.39
-10.27
-12.01
-13.58
-14.95
-16.12
-17.15
-18.19
-19.44
-20.97
-22.64
-24.01
-24.52
-23.58
-20.86
-16.38
-10.54
-4.01
2.52
8.41
13.26
16.9
19.33
20.65
20.98
20.48
19.3
17.66
15.83
14.1
12.75
11.92
11.66
11.89
12.43
13.07
13.61
13.87
13.71
13.04
11.85
10.26
8.42
6.54
4.75
3.09
1.54
0.02
-1.49
-2.97
-4.37
-5.65
-6.82
-7.97
-9.16
-10.51
-12.04
-13.8
-15.75
-17.77
-19.6
-20.84
-21.06
-19.85
-17.08
-12.89
-7.68
-2.03
3.47
8.33
12.22
15.01
16.71
17.42
17.32
16.55
15.26
13.57
11.66
9.77
8.1
6.81
5.94
5.46
5.22
5.12
5.06
4.97
4.8
4.48
3.95
3.19
2.22
1.09
-0.15
-1.5
-2.99
-4.61
-6.28
-7.87
-9.29
-10.51
-11.65
-12.88
-14.34
-16.07
-18.0
-20.0
-21.94
-23.68
-25.06
-25.83
-25.62
-24.14
-21.23
-17.04
-12.03
-6.81
-1.96
2.1
5.19
7.33
8.6
9.11
8.94
8.18
7.05
5.82
4.8
4.2
4.07
4.31
4.72
5.14
5.48
5.79
6.15
6.64
7.27
7.93
8.43
8.58
8.23
7.36
6.09
4.68
3.35
2.25
1.3
0.3
-0.99
-2.74
-4.89
-7.2
-9.34
-11.02
-12.16
-12.84
-13.31
-13.89
-14.82
-16.23
-18.09
-20.23
-22.29
-23.87
-24.52
-23.87
-21.73
-18.12
-13.35
-7.94
-2.48
2.47
6.49
9.39
11.18
12.04
12.18
11.85
11.2
10.34
9.4
8.51
7.85
7.55
7.68
8.12
8.66
9.08
9.22
9.05
8.66
8.21
7.78
7.36
6.83
6.06
4.95
3.55
2.0
0.54
-0.66
-1.5
-2.02
-2.4
-2.85
-3.54
-4.55
-5.87
-7.35
-8.86
-10.24
-11.41
-12.38
-13.23
-14.09
-15.1
-16.38
-17.92
-19.59
-21.11
-22.14
-22.31
-21.34
-19.1
-15.65
-11.24
-6.25
-1.16
3.54
7.48
10.47
12.51
13.74
14.34
14.43
14.05
13.21
11.98
10.56
9.25
8.32
7.95
8.13
8.73
9.52
10.32
11.02
11.55
11.91
12.05
11.96
11.61
10.98
10.09
8.96
7.62
6.13
4.56
2.95
1.39
-0.05
-1.35
-2.5
-3.54
-4.54
-5.51
-6.44
-7.32
-8.11
-8.83
-9.53
-10.27
-11.08
-12.02
-13.14
-14.51
-16.13
-17.88
-19.43
-20.33
-20.12
-18.49
-15.49
-11.45
-6.87
-2.24
2.15
6.14
9.7
12.74
15.09
16.5
16.84
16.13
14.61
12.68
10.79
9.28
8.34
7.95
8.0
8.34
8.88
9.55
10.29
11.01
11.57
11.81
11.6
10.91
9.75
8.25
6.53
4.77
3.15
1.83
0.86
0.12
-0.6
-1.56
-2.92
-4.6
-6.36
-7.91
-9.1
-10.0
-10.87
-12.03
-13.59
-15.54
-17.62
-19.54
-20.98
-21.67
-21.34
-19.75
-16.81
-12.65
-7.67
-2.44
2.44
6.55
9.73
12.03
13.57
14.45
14.71
14.32
13.34
11.91
10.32
8.87
7.83
7.31
7.24
7.46
7.75
7.95
8.01
7.97
7.86
7.67
7.31
6.71
5.84
4.79
3.67
2.56
1.48
0.36
-0.87
-2.25
-3.73
-5.2
-6.56
-7.73
-8.74
-9.68
-10.71
-12.0
-13.67
-15.67
-17.77
-19.56
-20.53
-20.25
-18.52
-15.39
-11.15
-6.22
-1.05
3.96
8.46
12.17
14.96
16.79
17.69
17.81
17.28
16.24
14.84
13.28
11.8
10.63
9.94
9.73
9.88
10.22
10.57
10.83
10.93
10.8
10.39
9.64
8.59
7.33
6.04
4.86
3.87
3.0
2.09
0.98
-0.41
-2.0
-3.67
-5.29
-6.77
-8.13
-9.43
-10.79
-12.28
-13.95
-15.82
-17.84
-19.87
-21.62
-22.66
-22.55
-20.93
-17.69
-13.08
-7.62
-1.97
3.25
7.6
10.88
13.11
14.42
14.95
14.8
14.02
12.73
11.12
9.52
8.25
7.55
7.47
7.88
8.49
9.03
9.29
9.21
8.86
8.35
7.79
7.19
6.51
5.65
4.55
3.21
1.74
0.3
-0.97
-2.05
-3.04
-4.1
-5.37
-6.91
-8.62
-10.3
-11.78
-12.93
-13.76
-14.38
-14.95
-15.61
-16.49
-17.62
-19.0
-20.53
-22.0
-23.08
-23.35
-22.42
-20.03
-16.2
-11.24
-5.75
-0.38
4.32
8.02
10.69
12.45
13.5
13.96
13.87
13.22
12.09
10.73
9.47
8.65
8.45
8.83
9.58
10.41
11.12
11.58
11.81
11.81
11.64
11.33
10.89
10.38
9.82
9.17
8.33
7.2
5.75
4.08
2.38
0.84
-0.43
-1.48
-2.47
-3.59
-4.91
-6.39
-7.89
-9.25
-10.36
-11.24
-12.0
-12.78
-13.68
-14.76
-16.01
-17.38
-18.8
-20.12
-21.1
-21.41
-20.72
-18.77
-15.55
-11.29
-6.44
-1.51
3.06
6.99
10.19
12.69
14.5
15.59
15.92
15.47
14.38
12.95
11.56
10.56
10.14
10.25
10.72
11.26
11.73
12.04
12.26
12.42
12.54
12.51
12.24
11.64
10.73
9.61
8.4
7.17
5.97
4.72
3.38
1.93
0.41
-1.09
-2.49
-3.67
-4.6
-5.28
-5.81
-6.35
-7.09
-8.13
-9.43
-10.8
-12.01
-12.91
-13.54
-14.1
-14.87
-16.08
-17.74
-19.7
-21.67
-23.24
-24.05
-23.74
-22.06
-18.94
-14.52
-9.2
-3.56
1.76
6.25
9.6
11.77
12.9
13.22
12.93
12.19
11.08
9.73
8.3
7.04
6.18
5.87
6.07
6.62
7.27
7.82
8.13
8.24
8.22
8.17
8.16
8.14
8.03
7.74
7.16
6.23
4.99
3.55
2.06
0.72
-0.39
-1.28
-2.08
-2.93
-3.96
-5.15
-6.4
-7.57
-8.53
-9.26
-9.8
-10.24
-10.67
-11.19
-11.92
-12.97
-14.43
-16.31
-18.46
-20.54
-22.03
-22.34
-21.03
-17.95
-13.38
-7.91
-2.28
2.84
7.0
10.08
12.13
13.32
13.82
13.77
13.3
12.53
11.62
10.69
9.82
9.09
8.55
8.25
8.25
8.53
9.05
9.72
10.41
11.02
11.45
11.61
11.43
10.84
9.84
8.49
6.92
5.29
3.75
2.35
1.06
-0.2
-1.53
-3.0
-4.59
-6.24
-7.81
-9.18
-10.28
-11.13
-11.83
-12.51
-13.23
-14.05
-14.97
-16.04
-17.31
-18.77
-20.29
-21.53
-21.96
-21.06
-18.5
-14.3
-8.89
-2.93
2.85
7.95
12.07
15.19
17.36
18.69
19.21
18.97
18.07
16.67
15.07
13.56
12.38
11.64
11.32
11.28
11.35
11.43
11.48
11.52
11.55
11.57
11.49
11.2
10.64
9.78
8.66
7.38
6.04
4.69
3.31
1.85
0.23
-1.52
-3.33
-5.03
-6.5
-7.7
-8.7
-9.63
-10.63
-11.74
-12.92
-14.07
-15.08
-16.0
-16.94
-18.11
-19.69
-21.71
-23.95
-25.99
-27.27
-27.22
-25.48
-21.99
-16.99
-10.96
-4.5
1.83
7.55
12.3
15.85
18.1
19.11
19.07
18.25
16.99
15.59
14.3
13.23
12.44
11.89
11.55
11.41
11.49
11.8
12.33
12.98
13.61
14.02
14.06
13.67
12.84
11.65
10.2
8.62
7.03
5.52
4.14
2.84
1.58
0.27
-1.14
-2.62
-4.12
-5.6
-7.03
-8.45
-9.89
-11.31
-12.63
-13.73
-14.53
-15.07
-15.49
-15.99
-16.75
-17.91
-19.51
-21.49
-23.67
-25.73
-27.25
-27.73
-26.73
-24.03
-19.69
-14.04
-7.64
-1.1
5.03
10.33
14.57
17.68
19.67
20.6
20.54
19.61
18.04
16.14
14.28
12.78
11.83
11.45
11.53
11.93
12.5
13.17
13.87
14.49
14.89
14.96
14.62
13.89
12.92
11.83
10.73
9.61
8.37
6.89
5.14
3.2
1.27
-0.43
-1.79
-2.84
-3.73
-4.61
-5.58
-6.63
-7.73
-8.83
-9.94
-11.06
-12.18
-13.3
-14.37
-15.41
-16.46
-17.7
-19.25
-21.15
-23.26
-25.21
-26.5
-26.59
-25.09
-21.86
-17.09
-11.25
-4.99
1.05
6.33
10.54
13.59
15.54
16.54
16.75
16.34
15.46
14.28
12.99
11.79
10.83
10.18
9.85
9.82
10.07
10.57
11.24
11.93
12.48
12.72
12.57
12.01
11.11
9.95
8.64
7.24
5.84
4.51
3.26
2.11
1.03
-0.03
-1.16
-2.36
-3.67
-5.02
-6.33
-7.5
-8.45
-9.15
-9.69
-10.19
-10.79
-11.65
-12.86
-14.44
-16.36
-18.46
-20.44
-21.88
-22.34
-21.51
-19.27
-15.77
-11.37
-6.49
-1.54
3.17
7.4
11.03
13.9
15.92
17.02
17.23
16.67
15.54
14.11
12.58
11.13
9.86
8.86
8.18
7.88
7.96
8.4
9.07
9.79
10.37
10.68
10.62
10.17
9.38
8.35
7.19
6.0
4.81
3.6
2.31
0.84
-0.8
-2.56
-4.28
-5.79
-6.96
-7.81
-8.46
-9.15
-10.14
-11.58
-13.48
-15.61
-17.55
-18.81
-18.91
-17.59
-14.84
-10.93
-6.28
-1.41
3.24
7.37
10.82
13.5
15.42
16.58
17.03
16.82
16.04
14.78
13.15
11.3
9.37
7.6
6.19
5.3
4.93
4.96
5.18
5.36
5.36
5.14
4.71
4.09
3.29
2.33
1.26
0.14
-0.92
-1.88
-2.75
-3.59
-4.42
-5.29
-6.15
-6.96
-7.75
-8.6
-9.67
-11.1
-12.97
-15.26
-17.79
-20.23
-22.1
-22.88
-22.1
-19.54
-15.29
-9.81
-3.82
1.9
6.71
10.25
12.53
13.76
14.19
14.04
13.43
12.4
11.02
9.42
7.79
6.29
5.07
4.16
3.54
3.16
2.99
2.98
3.09
3.27
3.41
3.4
3.2
2.83
2.39
1.96
1.54
1.04
0.27
-0.96
-2.72
-4.89
-7.21
-9.36
-11.16
-12.62
-13.96
-15.44
-17.27
-19.44
-21.72
-23.7
-24.95
-25.08
-23.83
-21.1
-16.96
-11.66
-5.63
0.55
6.24
10.89
14.19
16.11
16.81
16.54
15.55
14.0
12.04
9.84
7.68
5.87
4.63
4.05
4.02
4.31
4.66
4.89
4.9
4.69
4.29
3.7
2.94
2.03
1.04
0.03
-0.93
-1.87
-2.87
-4.05
-5.53
-7.33
-9.4
-11.6
-13.78
-15.83
-17.72
-19.47
-21.13
-22.67
-23.9
-24.5
-24.03
-22.14
-18.77
-14.13
-8.77
-3.32
1.66
5.89
9.35
12.14
14.34
15.87
16.54
16.18
14.79
12.68
10.35
8.32
6.95
6.31
6.2
6.32
6.43
6.48
6.57
6.85
7.36
7.99
8.52
8.69
8.33
7.39
5.97
4.21
2.3
0.38
-1.44
-3.1
-4.58
-5.93
-7.22
-8.55
-10.05
-11.76
-13.62
-15.43
-16.87
-17.56
-17.17
-15.47
-12.45
-8.34
-3.49
1.62
6.54
10.89
14.39
16.88
18.29
18.62
17.97
16.52
14.54
12.36
10.33
8.77
7.85
7.58
7.81
8.31
8.87
9.34
9.67
9.84
9.83
9.61
9.09
8.17
6.81
5.02
2.9
0.61
-1.64
-3.68
-5.42
-6.87
-8.2
-9.69
-11.59
-14.0
-16.77
-19.49
-21.52
-22.21
-21.09
-18.01
-13.21
-7.25
-0.87
5.23
10.5
14.66
17.61
19.43
20.24
20.16
19.27
17.68
15.54
13.13
10.79
8.86
7.54
6.79
6.46
6.29
6.09
5.8
5.47
5.17
4.89
4.52
3.94
3.05
1.85
0.4
-1.22
-2.97
-4.85
-6.83
-8.82
-10.72
-12.47
-14.14
-15.93
-18.05
-20.56
-23.26
-25.73
-27.36
-27.6
-26.1
-22.82
-18.03
-12.21
-5.92
0.26
5.85
10.51
14.02
16.29
17.32
17.22
16.18
14.52
12.6
10.81
9.4
8.47
7.95
7.73
7.71
7.88
8.24
8.74
9.19
9.31
8.85
7.7
5.96
3.91
1.88
0.08
-1.41
-2.68
-3.84
-4.96
-6.09
-7.22
-8.39
-9.62
-10.92
-12.28
-13.69
-15.14
-16.74
-18.59
-20.71
-22.97
-24.95
-26.06
-25.71
-23.54
-19.58
-14.23
-8.11
-1.87
3.99
9.18
13.53
16.97
19.43
20.83
21.17
20.6
19.35
17.8
16.31
15.17
14.52
14.35
14.55
14.92
15.34
15.69
15.89
15.92
15.69
15.11
14.14
12.77
11.06
9.14
7.13
5.16
3.31
1.6
0.02
-1.48
-2.96
-4.49
-6.15
-7.93
-9.77
-11.53
-13.06
-14.26
-15.12
-15.78
-16.46
-17.42
-18.86
-20.8
-23.03
-25.13
-26.57
-26.85
-25.65
-22.93
-18.91
-13.97
-8.52
-2.93
2.48
7.46
11.75
15.12
17.4
18.55
18.68
18.01
16.84
15.47
14.13
13.01
12.26
11.93
12.02
12.45
13.02
13.54
13.8
13.74
13.35
12.73
11.98
11.15
10.26
9.23
7.96
6.45
4.77
3.11
1.67
0.59
-0.13
-0.65
-1.19
-1.92
-2.91
-4.11
-5.39
-6.63
-7.78
-8.8
-9.72
-10.59
-11.47
-12.46
-13.7
-15.29
-17.24
-19.38
-21.36
-22.7
-22.88
-21.48
-18.36
-13.67
-7.88
-1.64
4.36
9.6
13.78
16.8
18.65
19.38
19.03
17.74
15.78
13.59
11.62
10.23
9.53
9.41
9.6
9.89
10.14
10.36
10.61
10.9
11.13
11.14
10.8
10.04
8.94
7.59
6.13
4.65
3.15
1.6
-0.05
-1.82
-3.69
-5.58
-7.42
-9.14
-10.67
-11.97
-13.02
-13.83
-14.48
-15.17
-16.14
-17.58
-19.56
-21.9
-24.13
-25.63
-25.77
-24.16
-20.79
-15.96
-10.28
-4.36
1.23
6.09
10.03
12.94
14.82
15.71
15.68
14.91
13.62
12.12
10.72
9.62
8.95
8.66
8.63
8.76
8.96
9.22
9.55
9.96
10.34
10.62
10.71
10.54
10.1
9.4
8.42
7.19
5.76
4.25
2.79
1.49
0.37
-0.64
-1.65
-2.76
-4.0
-5.35
-6.76
-8.19
-9.6
-10.96
-12.26
-13.49
-14.69
-15.96
-17.41
-19.08
-20.89
-22.61
-23.81
-24.04
-22.88
-20.16
-15.94
-10.58
-4.61
1.41
6.92
11.51
14.94
17.14
18.2
18.33
17.76
16.71
15.33
13.75
12.12
10.62
9.48
8.9
8.95
9.51
10.35
11.18
11.79
12.11
12.13
11.9
11.45
10.78
9.89
8.81
7.6
6.35
5.1
3.87
2.62
1.28
-0.18
-1.73
-3.35
-4.94
-6.43
-7.77
-8.94
-10.0
-11.02
-12.07
-13.17
-14.32
-15.49
-16.7
-18.05
-19.68
-21.63
-23.79
-25.82
-27.19
-27.39
-26.03
-23.06
-18.72
-13.47
-7.87
-2.39
2.6
6.83
10.12
12.38
13.57
13.78
13.17
11.97
10.48
8.95
7.63
6.68
6.19
6.12
6.36
6.77
7.22
7.66
8.1
8.57
9.08
9.58
9.95
10.03
9.72
8.98
7.87
6.53
5.14
3.84
2.69
1.63
0.53
-0.77
-2.35
-4.17
-6.04
-7.74
-9.07
-9.97
-10.53
-10.92
-11.35
-11.94
-12.79
-13.9
-15.22
-16.58
-17.68
-18.11
-17.44
-15.38
-11.92
-7.32
-2.06
3.34
8.48
13.06
16.9
19.84
21.7
22.36
21.81
20.29
18.16
15.9
13.91
12.43
11.47
10.91
10.58
10.35
10.15
9.96
9.76
9.48
9.05
8.37
7.4
6.19
4.86
3.54
2.33
1.25
0.24
-0.77
-1.89
-3.2
-4.73
-6.45
-8.31
-10.17
-11.93
-13.52
-14.95
-16.32
-17.81
-19.54
-21.55
-23.62
-25.31
-26.0
-25.15
-22.5
-18.13
-12.55
-6.43
-0.47
4.81
9.1
12.31
14.47
15.66
16.0
15.63
14.72
13.45
11.99
10.52
9.16
8.05
7.31
6.95
6.94
7.16
7.43
7.6
7.58
7.33
6.91
6.37
5.72
4.93
3.96
2.77
1.4
-0.12
-1.71
-3.35
-5.03
-6.72
-8.38
-9.99
-11.54
-13.11
-14.82
-16.78
-19.01
-21.35
-23.45
-24.88
-25.17
-23.97
-21.14
-16.77
-11.22
-5.05
1.14
6.77
11.44
14.98
17.37
18.71
19.14
18.76
17.68
16.08
14.22
12.45
11.04
10.15
9.73
9.59
9.5
9.31
9.0
8.64
8.25
7.76
7.03
5.91
4.37
2.57
0.76
-0.83
-2.15
-3.3
-4.52
-5.96
-7.66
-9.53
-11.4
-13.16
-14.83
-16.51
-18.39
-20.59
-23.07
-25.66
-27.95
-29.46
-29.71
-28.3
-25.09
-20.24
-14.22
-7.67
-1.36
4.13
8.4
11.33
13.02
13.68
13.51
12.67
11.3
9.53
7.59
5.77
4.36
3.55
3.34
3.56
3.93
4.2
4.25
4.15
4.05
4.07
4.2
4.25
3.94
3.1
1.72
-0.01
-1.79
-3.39
-4.75
-5.98
-7.27
-8.73
-10.37
-12.05
-13.7
-15.33
-17.07
-19.09
-21.38
-23.64
-25.34
-25.79
-24.48
-21.24
-16.3
-10.28
-3.91
2.1
7.29
11.4
14.36
16.21
17.03
16.93
16.1
14.78
13.27
11.84
10.69
9.91
9.45
9.24
9.19
9.26
9.44
9.69
9.96
10.11
9.99
9.5
8.57
7.22
5.52
3.6
1.62
-0.27
-1.95
-3.37
-4.59
-5.72
-6.93
-8.36
-10.11
-12.17
-14.44
-16.62
-18.24
-18.74
-17.63
-14.7
-10.12
-4.45
1.56
7.17
11.9
15.56
18.17
19.83
20.62
20.56
19.71
18.18
16.23
14.18
12.34
10.97
10.13
9.73
9.56
9.39
9.08
8.63
8.1
7.57
7.0
6.28
5.3
4.01
2.47
0.86
-0.7
-2.16
-3.6
-5.14
-6.88
-8.82
-10.95
-13.24
-15.69
-18.19
-20.46
-22.02
-22.25
-20.67
-17.13
-11.96
-5.89
0.21
5.65
10.04
13.39
15.88
17.67
18.8
19.14
18.55
17.03
14.85
12.45
10.31
8.76
7.94
7.73
7.9
8.24
8.58
8.83
8.95
8.88
8.56
7.92
6.94
5.6
3.97
2.08
0.02
-2.1
-4.14
-5.97
-7.53
-8.88
-10.22
-11.76
-13.7
-16.16
-19.06
-22.12
-24.9
-26.87
-27.52
-26.47
-23.61
-19.1
-13.38
-7.05
-0.74
5.04
9.94
13.77
16.51
18.15
18.75
18.39
17.2
15.42
13.38
11.43
9.94
9.13
9.05
9.61
10.58
11.68
12.64
13.24
13.36
12.94
12.05
10.81
9.37
7.89
6.47
5.11
3.69
2.07
0.19
-1.92
-4.09
-6.09
-7.77
-9.09
-10.11
-11.0
-11.96
-13.15
-14.74
-16.84
-19.47
-22.45
-25.4
-27.64
-28.44
-27.14
-23.48
-17.71
-10.59
-3.17
3.53
8.81
12.48
14.73
15.93
16.44
16.44
15.96
14.99
13.58
11.93
10.29
8.9
7.92
7.41
7.36
7.72
8.42
9.34
10.31
11.13
11.56
11.47
10.78
9.52
7.79
5.78
3.7
1.74
0.08
-1.24
-2.28
-3.21
-4.27
-5.68
-7.51
-9.65
-11.86
-13.8
-15.21
-16.03
-16.4
-16.68
-17.29
-18.54
-20.49
-22.92
-25.35
-27.22
-28.0
-27.34
-25.12
-21.42
-16.51
-10.79
-4.73
1.18
6.47
10.8
14.01
16.11
17.22
17.51
17.12
16.16
14.76
13.07
11.33
9.84
8.87
8.58
8.98
9.93
11.12
12.2
12.89
13.04
12.64
11.83
10.8
9.72
8.7
7.77
6.88
5.96
4.94
3.79
2.51
1.17
-0.18
-1.5
-2.78
-4.07
-5.36
-6.66
-7.92
-9.05
-10.02
-10.79
-11.38
-11.87
-12.39
-13.12
-14.29
-15.98
-18.1
-20.26
-21.86
-22.25
-20.94
-17.8
-13.08
-7.33
-1.21
4.7
9.93
14.2
17.36
19.39
20.32
20.28
19.43
17.99
16.24
14.46
12.93
11.86
11.37
11.38
11.75
12.23
12.58
12.67
12.41
11.82
10.99
10.03
9.04
8.09
7.19
6.33
5.45
4.5
3.42
2.2
0.85
-0.58
-2.03
-3.42
-4.75
-6.04
-7.34
-8.67
-9.99
-11.23
-12.35
-13.38
-14.49
-15.9
-17.78
-20.14
-22.75
-25.21
-26.98
-27.58
-26.64
-24.05
-19.92
-14.59
-8.51
-2.22
3.77
9.03
13.25
16.26
18.06
18.73
18.48
17.54
16.15
14.56
12.98
11.56
10.46
9.76
9.49
9.63
10.05
10.57
10.97
11.11
10.94
10.52
9.97
9.38
8.79
8.16
7.43
6.56
5.55
4.41
3.17
1.82
0.39
-1.04
-2.38
-3.51
-4.43
-5.2
-5.98
-6.91
-8.08
-9.48
-11.03
-12.65
-14.25
-15.75
-17.11
-18.29
-19.35
-20.39
-21.58
-23.04
-24.73
-26.37
-27.46
-27.41
-25.77
-22.35
-17.34
-11.25
-4.72
1.58
7.17
11.72
15.08
17.24
18.26
18.33
17.63
16.45
15.06
13.7
12.54
11.64
11.03
10.71
10.69
11.0
11.63
12.46
13.29
13.87
14.0
13.6
12.76
11.66
10.45
9.19
7.82
6.23
4.35
2.25
0.07
-1.98
-3.76
-5.25
-6.54
-7.76
-9.02
-10.33
-11.6
-12.71
-13.6
-14.28
-14.92
-15.71
-16.77
-18.18
-19.89
-21.77
-23.67
-25.41
-26.72
-27.27
-26.69
-24.63
-20.96
-15.82
-9.68
-3.18
3.03
8.43
12.74
15.89
17.88
18.76
18.59
17.49
15.69
13.59
11.61
10.12
9.32
9.16
9.43
9.88
10.28
10.51
10.6
10.67
10.86
11.23
11.73
12.19
12.38
12.11
11.31
10.06
8.55
6.96
5.38
3.78
2.05
0.11
-1.99
-4.11
-6.08
-7.75
-9.08
-10.13
-11.04
-11.96
-13.02
-14.33
-15.89
-17.66
-19.43
-20.91
-21.71
-21.44
-19.82
-16.75
-12.4
-7.14
-1.51
3.94
8.75
12.6
15.37
17.09
17.86
17.81
17.08
15.82
14.18
12.37
10.62
9.14
8.09
7.55
7.48
7.75
8.19
8.63
8.9
8.88
8.54
7.9
7.06
6.11
5.13
4.17
3.16
2.04
0.76
-0.65
-2.1
-3.45
-4.62
-5.63
-6.57
-7.6
-8.84
-10.41
-12.33
-14.57
-16.95
-19.17
-20.78
-21.29
-20.31
-17.69
-13.59
-8.47
-2.93
2.46
7.24
11.17
14.18
16.26
17.48
17.94
17.72
16.91
15.61
13.91
11.96
9.96
8.17
6.82
6.06
5.83
5.95
6.1
5.96
5.36
4.29
2.92
1.49
0.23
-0.78
-1.57
-2.32
-3.19
-4.27
-5.55
-6.96
-8.42
-9.95
-11.61
-13.45
-15.44
-17.47
-19.4
-21.14
-22.71
-24.17
-25.44
-26.27
-26.18
-24.66
-21.46
-16.71
-10.93
-4.88
0.73
5.46
9.13
11.8
13.52
14.29
14.08
12.9
10.94
8.64
6.54
5.11
4.63
5.04
6.07
7.32
8.47
9.33
9.8
9.86
9.51
8.71
7.52
6.05
4.46
2.93
1.54
0.28
-0.88
-1.99
-3.03
-3.97
-4.82
-5.66
-6.61
-7.82
-9.32
-11.08
-13.01
-15.06
-17.15
-19.16
-20.82
-21.69
-21.29
-19.2
-15.3
-9.88
-3.54
2.92
8.76
13.43
16.57
18.06
17.88
16.12
12.99
8.82
4.1
-0.6
-4.72
-7.83
-9.63
-10.0
-8.97
-6.72
-3.58
-0.01
3.48
6.45
8.63
9.97
10.58
10.68
10.41
9.88
9.1
8.1
6.95
5.75
4.53
3.3
1.93
0.3
-1.67
-3.98
-6.55
-9.26
-11.93
-14.34
-16.22
-17.22
-16.98
-15.23
-11.95
-7.39
-2.04
3.48
8.65
13.12
16.76
19.55
21.48
22.5
22.54
21.59
19.77
17.38
14.78
12.35
10.37
8.99
8.17
7.8
7.7
7.68
7.56
7.27
6.82
6.27
5.69
5.06
4.24
3.1
1.51
-0.46
-2.66
-4.84
-6.88
-8.81
-10.84
-13.26
-16.21
-19.6
-23.01
-25.84
-27.43
-27.3
-25.25
-21.39
-16.14
-10.01
-3.61
2.58
8.16
12.81
16.31
18.49
19.3
18.83
17.32
15.18
12.86
10.73
9.03
7.79
6.94
6.38
6.07
5.99
6.13
6.36
6.49
6.3
5.69
4.68
3.42
2.08
0.76
-0.56
-2.01
-3.69
-5.63
-7.75
-9.97
-12.17
-14.33
-16.5
-18.74
-21.11
-23.51
-25.65
-27.08
-27.24
-25.65
-22.08
-16.69
-10.01
-2.87
3.92
9.71
14.16
17.27
19.17
20.1
20.18
19.5
18.16
16.32
14.32
12.54
11.32
10.8
10.93
11.47
12.15
12.76
13.18
13.36
13.24
12.75
11.81
10.43
8.67
6.66
4.61
2.63
0.8
-0.87
-2.45
-4.02
-5.66
-7.4
-9.25
-11.11
-12.88
-14.43
-15.76
-17.01
-18.45
-20.36
-22.82
-25.58
-27.98
-29.18
-28.39
-25.19
-19.75
-12.72
-5.05
2.36
8.87
14.22
18.35
21.33
23.23
24.06
23.88
22.86
21.31
19.6
18.08
16.98
16.34
16.08
16.04
16.12
16.29
16.61
17.13
17.83
18.54
19.01
18.99
18.3
16.94
15.04
12.86
10.7
8.78
7.21
5.98
4.96
3.97
2.86
1.53
0.01
-1.58
-3.11
-4.48
-5.64
-6.66
-7.63
-8.65
-9.82
-11.13
-12.55
-14.02
-15.44
-16.8
-18.1
-19.39
-20.72
-22.16
-23.84
-25.85
-28.22
-30.76
-33.03
-34.42
-34.25
-32.05
-27.72
-21.61
-14.35
-6.73
0.55
6.98
12.27
16.29
18.98
20.37
20.57
19.76
18.25
16.41
14.62
13.22
12.38
12.14
12.36
12.83
13.31
13.69
13.93
14.08
14.19
14.22
14.09
13.64
12.77
11.49
9.92
8.29
6.8
5.56
4.53
3.59
2.59
1.47
0.26
-0.97
-2.12
-3.2
-4.25
-5.33
-6.48
-7.69
-8.9
-10.07
-11.17
-12.18
-13.1
-13.92
-14.72
-15.64
-16.85
-18.5
-20.55
-22.75
-24.59
-25.48
-24.9
-22.57
-18.57
-13.28
-7.3
-1.25
4.32
9.09
12.89
15.7
17.54
18.42
18.44
17.74
16.54
15.14
13.81
12.76
12.05
11.68
11.56
11.59
11.69
11.84
12.05
12.3
12.56
12.69
12.56
12.0
11.0
9.65
8.15
6.76
5.61
4.76
4.11
3.56
2.99
2.34
1.63
0.86
0.03
-0.83
-1.67
-2.45
-3.13
-3.72
-4.25
-4.85
-5.65
-6.79
-8.4
-10.61
-13.57
-17.4
-22.16
-27.8
-34.07
-40.44
-46.21
-50.63
-53.04
-53.09
-50.78
-46.46
-40.72
-34.24
-27.67
-21.55
-16.2
-11.83
-8.45
-5.98
-4.23
-2.96
-1.88
-0.67
0.92
3.05
5.71
8.74
11.89
14.91
17.65
20.09
22.22
23.97
25.22
25.81
25.68
24.86
23.52
21.86
20.09
18.34
16.73
15.33
14.16
13.17
12.2
11.01
9.42
7.37
4.97
2.49
0.17
-1.84
-3.55
-5.06
-6.47
-7.84
-9.14
-10.31
-11.29
-12.06
-12.62
-13.04
-13.43
-13.98
-14.88
-16.25
-18.03
-19.98
-21.59
-22.33
-21.72
-19.51
-15.79
-10.89
-5.39
0.13
5.15
9.36
12.6
14.91
16.3
16.82
16.52
15.5
14.04
12.47
11.16
10.27
9.8
9.55
9.35
9.13
9.0
9.14
9.66
10.48
11.33
11.92
11.98
11.45
10.47
9.27
8.06
6.95
5.97
5.03
4.03
2.9
1.63
0.28
-1.08
-2.37
-3.54
-4.58
-5.51
-6.36
-7.17
-7.98
-8.78
-9.54
-10.25
-10.9
-11.6
-12.51
-13.76
-15.42
-17.37
-19.3
-20.78
-21.38
-20.79
-18.85
-15.66
-11.39
-6.39
-1.05
4.21
8.97
12.88
15.69
17.3
17.78
17.34
16.29
15.0
13.75
12.69
11.79
10.99
10.18
9.36
8.67
8.25
8.23
8.57
9.1
9.53
9.6
9.19
8.32
7.19
6.03
4.98
4.12
3.37
2.63
1.79
0.78
-0.44
-1.84
-3.39
-5.02
-6.67
-8.23
-9.63
-10.85
-11.96
-13.17
-14.65
-16.49
-18.56
-20.48
-21.69
-21.66
-20.11
-17.04
-12.81
-7.94
-3.0
1.59
5.55
8.79
11.3
13.1
14.21
14.69
14.57
13.96
12.97
11.78
10.58
9.54
8.78
8.33
8.14
8.08
7.99
7.77
7.36
6.75
5.95
4.97
3.79
2.43
0.9
-0.7
-2.27
-3.74
-5.09
-6.32
-7.49
-8.61
-9.67
-10.69
-11.75
-12.98
-14.52
-16.46
-18.75
-21.12
-23.19
-24.48
-24.59
-23.26
-20.42
-16.23
-11.05
-5.34
0.36
5.59
9.99
13.43
15.86
17.36
18.04
17.98
17.3
16.12
14.59
12.93
11.3
9.82
8.52
7.42
6.53
5.86
5.43
5.22
5.16
5.14
5.06
4.82
4.37
3.65
2.63
1.32
-0.2
-1.8
-3.33
-4.72
-5.99
-7.27
-8.72
-10.45
-12.53
-14.95
-17.66
-20.47
-23.1
-25.1
-25.98
-25.29
-22.84
-18.72
-13.34
-7.27
-1.1
4.67
9.7
13.76
16.69
18.43
19.02
18.61
17.43
15.82
14.08
12.44
11.04
9.96
9.23
8.88
8.91
9.26
9.83
10.44
10.9
11.09
10.98
10.62
10.07
9.35
8.37
7.04
5.31
3.24
0.99
-1.24
-3.31
-5.16
-6.86
-8.52
-10.31
-12.38
-14.82
-17.53
-20.28
-22.6
-23.94
-23.81
-21.95
-18.4
-13.5
-7.79
-1.82
3.87
8.91
13.0
15.99
17.86
18.7
18.67
17.97
16.76
15.16
13.3
11.37
9.6
8.26
7.5
7.3
7.5
7.87
8.21
8.42
8.42
8.18
7.61
6.62
5.18
3.35
1.3
-0.77
-2.72
-4.47
-6.04
-7.52
-9.02
-10.64
-12.55
-14.81
-17.34
-19.86
-21.84
-22.71
-21.95
-19.38
-15.1
-9.57
-3.38
2.89
8.74
13.83
17.93
20.88
22.58
23.0
22.19
20.37
17.9
15.25
12.89
11.19
10.27
10.03
10.16
10.33
10.3
9.99
9.48
8.92
8.39
7.84
7.07
5.91
4.22
2.04
-0.44
-2.96
-5.28
-7.31
-9.08
-10.8
-12.66
-14.81
-17.26
-19.81
-22.16
-23.92
-24.71
-24.21
-22.27
-18.94
-14.42
-9.09
-3.39
2.26
7.46
11.92
15.42
17.81
19.04
19.1
18.13
16.38
14.17
11.86
9.79
8.24
7.33
7.07
7.28
7.73
8.14
8.3
8.1
7.6
6.93
6.22
5.48
4.63
3.51
2.01
0.15
-1.93
-4.05
-6.01
-7.77
-9.35
-10.86
-12.36
-13.95
-15.67
-17.55
-19.61
-21.76
-23.76
-25.19
-25.52
-24.27
-21.16
-16.28
-10.05
-3.18
3.54
9.41
14.01
17.21
19.12
19.95
19.89
19.1
17.71
15.89
13.94
12.19
10.92
10.26
10.14
10.37
10.69
10.91
11.02
11.06
11.08
11.1
11.02
10.63
9.77
8.35
6.48
4.38
2.33
0.5
-1.11
-2.68
