BVP
35.04
37.84
38.65
37.98
36.31
34.14
31.89
29.82
27.99
26.29
24.53
22.69
20.91
19.45
18.59
18.37
18.5
18.48
17.7
15.77
12.63
8.69
4.61
1.09
-1.49
-3.38
-5.48
-9.2
-15.98
-26.78
-41.61
-59.38
-77.98
-94.65
-106.53
-111.05
-106.25
-90.91
-64.82
-28.95
13.99
59.65
102.13
134.89
152.2
150.29
127.91
86.03
27.11
-45.14
-125.55
-206.85
-280.05
-335.87
-367.58
-373.4
-357.45
-328.21
-295.32
-266.03
-243.43
-226.62
-212.65
-198.64
-182.9
-164.67
-143.4
-118.39
-89.55
-58.54
-29.24
-6.86
3.97
1.52
-11.91
-30.82
-48.79
-61.1
-66.26
-65.97
-63.51
-61.84
-62.16
-63.7
-64.3
-61.48
-53.37
-39.11
-19.03
5.53
32.66
60.54
87.78
113.49
137.03
157.71
174.75
187.52
196.1
201.44
204.93
207.19
207.15
202.07
189.03
167.49
141.37
118.98
110.23
122.06
154.68
200.8
248.23
284.93
303.49
303.23
289.09
268.66
249.03
235.06
228.88
230.09
236.19
242.73
244.09
234.8
211.58
175.13
130.84
87.76
55.59
41.4
47.29
70.12
103.43
140.39
176.2
208.66
236.94
259.51
273.08
273.11
256.06
221.82
174.46
120.97
68.5
21.5
-19.53
-57.15
-94.25
-131.01
-163.16
-182.81
-181.66
-155.63
-108.26
-51.18
-0.97
26.46
21.67
-14.72
-72.34
-135.06
-186.62
-215.44
-217.06
-193.79
-152.88
-104.03
-57.6
-23.16
-8.16
-16.41
-46.63
-91.96
-141.27
-182.5
-206.65
-210.84
-198.61
-177.4
-154.65
-134.57
-117.26
-100.18
-80.8
-58.51
-34.92
-12.5
7.0
23.32
36.97
47.99
55.16
56.59
51.04
39.27
24.24
9.97
-0.26
-5.23
-5.99
-4.88
-4.26
-5.49
-8.8
-13.63
-19.25
-25.07
-30.72
-35.95
-40.57
-44.47
-47.77
-50.65
-53.19
-55.23
-56.47
-56.59
-55.59
-53.83
-51.94
-50.59
-50.14
-50.61
-51.66
-52.8
-53.56
-53.59
-52.61
-50.36
-46.59
-41.09
-33.84
-25.2
-15.77
-6.27
2.68
10.71
17.69
23.57
28.21
31.32
32.63
32.18
30.45
28.36
26.97
27.02
28.62
31.21
33.8
35.46
35.71
34.65
32.87
31.19
30.17
30.03
30.52
31.12
31.25
30.51
28.84
26.65
24.71
23.77
24.24
25.86
27.74
28.71
27.76
24.57
19.77
14.65
10.55
8.36
8.31
10.07
12.93
15.8
17.12
15.47
10.42
3.33
-2.03
-0.32
12.97
39.26
74.92
111.86
140.78
154.35
149.07
125.39
86.7
37.78
-15.01
-64.25
-101.99
-120.62
-115.63
-87.96
-44.25
5.79
52.48
90.19
117.71
133.25
137.02
131.75
122.25
113.47
111.13
114.27
119.69
123.18
120.72
108.87
87.29
58.07
24.63
-9.42
-41.73
-70.78
-96.2
-118.42
-137.61
-153.7
-166.91
-178.08
-188.34
-198.97
-210.16
-221.18
-230.59
-236.22
-235.89
-228.39
-213.87
-193.74
-170.32
-145.62
-121.02
-97.05
-73.48
-49.79
-25.88
-2.31
19.95
39.9
57.02
71.07
81.81
88.83
91.67
90.08
84.51
76.3
67.42
60.0
55.69
55.2
58.31
64.07
70.82
76.37
78.19
74.05
62.86
45.33
24.26
3.67
-12.46
-21.68
-23.79
-20.64
-14.96
-9.08
-4.33
-1.23
-0.3
-2.98
-11.6
-28.68
-55.93
-93.56
-140.18
-193.01
-247.9
-299.03
-338.7
-358.4
-351.26
-315.39
-256.13
-185.6
-119.16
-70.12
-45.36
-43.72
-57.75
-77.47
-94.03
-101.89
-98.74
-84.71
-61.12
-30.1
5.62
42.61
76.87
104.43
122.5
130.34
129.79
124.92
120.78
121.61
129.45
143.82
162.42
182.45
201.59
217.99
229.83
234.83
230.5
215.08
188.59
153.18
112.52
70.71
31.17
-3.71
-32.51
-54.74
-70.54
-80.98
-87.75
-92.92
-97.88
-102.7
-105.91
-105.12
-98.2
-84.4
-64.96
-42.8
-21.59
-4.52
6.63
11.72
11.93
8.91
3.94
-2.51
-10.71
-20.95
-32.82
-44.82
-54.66
-60.13
-60.09
-54.92
-46.17
-35.52
-23.91
-11.27
2.91
18.37
33.53
45.61
51.85
50.95
43.82
33.35
23.11
16.08
13.61
15.25
19.36
23.88
27.06
27.87
26.12
22.34
17.53
12.76
8.86
6.24
5.01
5.14
6.67
9.56
13.49
17.73
21.11
22.51
21.29
17.75
12.93
8.16
4.47
2.14
0.58
-1.41
-5.04
-11.09
-19.42
-28.79
-37.15
-42.17
-41.99
-35.77
-24.06
-8.63
7.98
23.15
34.8
41.94
44.83
44.75
43.55
42.85
43.46
44.83
45.06
40.97
28.87
5.84
-28.38
-70.0
-111.31
-143.0
-157.92
-154.5
-137.7
-116.68
-100.21
-92.82
-93.36
-96.82
-97.9
-93.76
-84.6
-72.05
-57.08
-39.13
-17.04
9.32
38.05
65.8
89.64
108.84
125.62
143.98
167.5
197.01
229.43
258.54
277.04
279.23
262.97
230.16
185.71
135.68
85.75
40.36
2.72
-24.84
-40.79
-44.81
-38.22
-24.29
-7.77
6.14
12.92
9.6
-4.61
-28.32
-58.18
-89.15
-114.95
-129.19
-126.95
-106.82
-72.22
-31.28
5.02
26.23
25.86
3.48
-35.22
-80.61
-122.23
-151.78
-164.77
-160.76
-142.34
-113.66
-79.2
-42.86
-7.61
24.73
53.52
79.11
102.43
124.58
146.22
167.1
185.75
199.65
205.76
201.36
185.01
157.27
120.94
80.51
41.01
6.75
-19.79
-38.26
-50.08
-57.53
-62.75
-67.17
-71.33
-75.16
-78.28
-80.4
-81.57
-82.38
-84.07
-88.54
-97.97
-114.06
-136.83
-163.66
-189.2
-206.47
-209.02
-193.13
-159.24
-111.67
-57.28
-3.35
44.11
81.34
107.18
123.02
132.48
140.53
152.01
169.65
192.57
216.12
233.52
238.7
228.83
205.5
173.84
140.31
110.37
87.09
70.9
60.52
53.85
48.58
42.36
32.94
18.74
-0.5
-22.97
-44.72
-60.55
-65.49
-56.78
-35.18
-5.33
25.25
48.3
57.53
50.72
30.48
3.1
-23.9
-44.63
-56.69
-61.27
-61.61
-60.63
-59.1
-55.44
-47.05
-32.37
-12.53
8.46
25.06
32.4
28.42
14.76
-3.96
-22.1
-35.45
-42.81
-46.14
-49.12
-54.85
-63.97
-74.05
-80.61
-78.97
-66.31
-42.52
-10.01
27.34
65.14
99.13
125.52
141.61
146.79
143.33
136.28
132.0
135.55
148.39
167.72
187.93
203.22
210.08
207.95
198.31
182.87
162.38
136.84
106.59
73.44
40.86
12.84
-7.63
-19.71
-24.92
-26.35
-27.16
-29.7
-35.13
-43.63
-54.82
-67.9
-81.55
-93.9
-102.81
-106.6
-104.9
-99.14
-92.31
-87.72
-87.35
-90.26
-92.45
-88.21
-72.89
-45.55
-10.16
25.49
52.9
66.38
65.21
53.33
36.87
21.04
8.2
-2.1
-11.38
-20.3
-27.87
-32.03
-30.95
-24.38
-13.88
-2.44
6.43
9.5
4.63
-8.39
-26.89
-44.85
-54.15
-47.54
-22.27
17.32
60.04
91.58
100.12
81.3
39.94
-12.27
-61.83
-98.41
-117.54
-120.08
-109.82
-91.19
-68.18
-44.5
-23.92
-9.82
-4.05
-5.82
-11.64
-16.67
-16.5
-8.76
6.45
26.96
49.42
70.06
85.18
91.87
88.47
74.76
51.94
22.39
-10.59
-43.14
-71.21
-91.35
-101.73
-102.95
-97.98
-91.11
-86.06
-84.46
-85.27
-85.71
-83.05
-76.11
-65.8
-54.43
-44.45
-37.39
-33.4
-31.46
-30.09
-28.04
-24.8
-20.59
-16.04
-11.6
-7.18
-2.2
3.86
10.96
18.21
24.33
28.33
30.22
31.06
32.39
35.29
39.69
44.31
47.29
47.21
43.79
38.05
31.83
26.96
24.65
25.1
27.68
31.23
34.4
35.87
34.63
30.11
22.52
13.03
3.67
-3.05
-4.97
-1.14
7.65
18.88
29.04
34.79
33.9
25.76
11.2
-8.08
-29.99
-52.34
-72.83
-89.2
-99.56
-102.99
-99.99
-92.53
-83.4
-75.29
-70.06
-68.49
-70.57
-75.94
-84.23
-94.84
-106.63
-117.81
-126.17
-129.74
-127.48
-119.69
-107.65
-93.01
-77.17
-60.98
-44.99
-29.65
-15.46
-2.59
9.58
22.66
38.79
59.64
85.32
113.86
141.68
164.69
179.69
185.18
181.45
169.99
152.81
131.92
109.19
86.4
65.25
47.22
33.29
23.78
18.29
15.93
15.67
16.5
17.63
18.48
18.7
18.1
16.67
14.5
11.69
8.35
4.5
0.24
-4.24
-8.58
-12.38
-15.37
-17.53
-19.14
-20.62
-22.39
-24.63
-27.32
-30.35
-33.62
-37.14
-40.88
-44.7
-48.3
-51.39
-53.94
-56.38
-59.49
-64.1
-70.52
-78.23
-85.69
-90.81
-91.6
-86.95
-77.1
-63.64
-49.0
-35.61
-25.13
-17.89
-13.06
-9.16
-4.95
-0.15
4.31
6.69
5.31
-0.57
-10.19
-21.52
-31.77
-38.28
-39.26
-34.18
-24.24
-12.74
-5.09
-7.8
-26.1
-61.07
-107.79
-155.92
-193.17
-210.14
-204.14
-179.9
-146.67
-113.74
-86.45
-65.08
-46.58
-27.34
-5.19
20.65
50.48
84.67
122.66
161.4
194.95
216.19
220.24
207.08
182.08
153.31
127.63
107.84
92.58
78.78
64.54
50.55
39.1
31.7
27.43
23.13
15.43
2.97
-12.88
-29.06
-42.73
-52.97
-60.86
-68.26
-76.39
-84.74
-91.29
-93.52
-89.65
-79.35
-63.78
-45.08
-25.62
-7.46
8.01
20.09
28.72
34.43
38.03
40.4
42.15
43.49
44.26
44.23
43.33
41.94
40.82
40.85
42.66
46.25
50.94
55.61
59.16
60.96
61.03
59.92
58.29
56.64
55.15
53.78
52.43
51.07
49.74
48.51
47.4
46.33
45.2
43.87
42.22
40.13
37.55
34.53
31.14
27.55
23.95
20.58
17.65
15.29
13.49
12.09
10.82
9.42
7.7
5.49
2.68
-0.88
-5.3
-10.56
-16.42
-22.42
-28.0
-32.68
-36.27
-38.87
-40.83
-42.59
-44.57
-47.13
-50.44
-54.49
-58.96
-63.31
-66.73
-68.42
-67.74
-64.44
-58.73
-51.19
-42.66
-33.95
-25.74
-18.39
-12.05
-6.67
-2.12
1.74
5.09
8.08
10.85
13.48
16.01
18.44
20.82
23.13
25.41
27.6
29.64
31.38
32.72
33.61
34.04
34.02
33.59
32.78
31.62
30.12
28.32
26.29
24.06
21.71
19.36
17.14
15.2
13.62
12.37
11.32
10.24
8.9
7.16
5.01
2.61
0.2
-1.92
-3.57
-4.72
-5.56
-6.39
-7.55
-9.25
-11.52
-14.2
-17.01
-19.69
-22.06
-24.09
-25.84
-27.52
-29.43
-31.84
-34.98
-38.76
-42.79
-46.31
-48.43
-48.36
-45.75
-40.7
-33.79
-25.79
-17.47
-9.38
-1.91
4.75
10.41
14.88
18.02
19.77
20.25
19.78
18.79
17.75
16.98
16.63
16.63
16.86
17.17
17.47
17.72
17.88
17.94
17.86
17.68
17.46
17.29
17.22
17.14
16.88
16.27
15.24
13.88
12.39
10.93
9.52
8.08
6.5
4.74
2.91
1.26
-0.01
-0.81
-1.25
-1.66
-2.39
-3.78
-5.96
-8.82
-12.05
-15.22
-17.92
-19.97
-21.42
-22.52
-23.54
-24.6
-25.63
-26.46
-27.0
-27.4
-28.13
-29.77
-32.79
-37.27
-42.81
-48.59
-53.49
-56.38
-56.35
-52.96
-46.32
-37.14
-26.57
-15.88
-6.22
1.72
7.73
12.14
15.47
18.29
21.0
23.74
26.39
28.71
30.44
31.34
31.33
30.46
28.91
26.93
24.89
23.2
22.26
22.35
23.52
25.49
27.67
29.3
29.71
28.55
26.02
22.7
19.34
16.55
14.56
13.2
12.09
10.9
9.52
8.11
6.91
6.13
5.8
5.78
5.8
5.56
4.9
3.71
2.02
-0.09
-2.52
-5.16
-7.93
-10.78
-13.67
-16.57
-19.47
-22.38
-25.33
-28.41
-31.71
-35.29
-39.16
-43.17
-47.01
-50.15
-51.84
-51.38
-48.24
-42.39
-34.32
-24.95
-15.33
-6.33
1.54
8.17
13.59
17.84
20.84
22.48
22.83
22.26
21.33
20.67
20.66
21.32
22.37
23.34
23.88
23.82
23.27
22.49
21.74
21.15
20.71
20.26
19.6
18.59
17.18
15.47
13.61
11.77
10.1
8.68
7.5
6.58
5.86
5.24
4.57
3.73
2.6
1.18
-0.45
-2.19
-3.93
-5.58
-7.09
-8.48
-9.79
-11.13
-12.59
-14.26
-16.16
-18.23
-20.38
-22.54
-24.7
-26.91
-29.3
-32.0
-35.04
-38.24
-41.18
-43.21
-43.61
-41.78
-37.5
-31.07
-23.2
-14.81
-6.77
0.38
6.44
11.4
15.31
18.12
19.77
20.32
20.04
19.4
18.92
18.96
19.57
20.51
21.51
22.34
22.96
23.45
23.82
24.0
23.81
23.16
22.11
20.9
19.74
18.74
17.8
16.68
15.2
13.34
11.29
9.32
7.64
6.27
5.1
3.92
2.55
0.92
-1.01
-3.24
-5.72
-8.44
-11.33
-14.35
-17.42
-20.49
-23.43
-26.05
-28.11
-29.39
-29.85
-29.7
-29.37
-29.36
-30.07
-31.68
-34.06
-36.87
-39.61
-41.69
-42.5
-41.48
-38.26
-32.81
-25.54
-17.27
-8.99
-1.58
4.44
8.98
12.3
14.76
16.61
17.94
18.71
18.94
18.79
18.55
18.56
19.03
19.97
21.2
22.44
23.49
24.26
24.79
25.16
25.38
25.42
25.18
24.52
23.37
21.72
19.62
17.2
14.64
12.11
9.73
7.58
5.69
4.1
2.81
1.81
1.05
0.43
-0.2
-0.97
-1.93
-3.07
-4.38
-5.86
-7.61
-9.77
-12.46
-15.7
-19.3
-22.94
-26.2
-28.77
-30.57
-31.86
-33.17
-35.09
-37.97
-41.72
-45.72
-48.97
-50.43
-49.38
-45.68
-39.83
-32.76
-25.48
-18.7
-12.55
-6.7
-0.62
5.89
12.29
17.3
19.35
17.34
11.42
3.19
-4.71
-9.57
-9.83
-5.89
-0.15
3.72
2.11
-7.08
-23.43
-43.8
-63.02
-75.37
-76.19
-63.48
-38.69
-6.4
27.03
55.48
75.18
86.01
91.33
96.29
105.09
118.57
133.19
142.36
139.28
120.19
86.42
44.34
3.31
-27.39
-41.34
-36.57
-15.47
16.5
52.71
87.23
115.98
137.03
150.12
155.75
154.26
145.63
129.79
107.41
80.18
50.53
20.73
-8.06
-35.92
-63.63
-91.59
-118.89
-143.21
-161.54
-171.49
-172.3
-165.23
-153.01
-138.8
-125.17
-113.42
-103.62
-95.03
-86.6
-77.4
-66.8
-54.6
-41.0
-26.65
-12.46
0.62
11.9
21.12
28.46
34.23
38.51
40.96
40.86
37.48
30.35
19.49
5.38
-10.97
-27.97
-43.39
-54.65
-59.37
-56.14
-45.11
-27.93
-7.16
14.67
35.94
56.2
75.75
94.66
111.88
125.08
131.31
128.32
115.75
95.51
71.3
47.23
26.5
10.59
-0.55
-7.7
-11.57
-12.41
-10.34
-5.83
0.01
5.72
10.23
13.68
17.72
25.05
38.32
58.83
85.68
115.68
144.3
167.14
181.41
186.59
184.28
177.22
168.19
159.23
151.43
145.06
139.81
134.85
128.84
120.12
107.13
89.08
66.37
40.6
13.89
-11.86
-35.7
-57.61
-77.98
-96.81
-113.17
-125.18
-130.69
-128.3
-118.07
-101.74
-82.13
-62.25
-44.37
-29.56
-17.81
-8.61
-1.54
3.32
5.31
3.54
-2.82
-14.0
-29.47
-47.88
-67.16
-84.82
-98.37
-105.86
-106.43
-100.72
-90.99
-80.63
-73.48
-72.61
-79.22
-91.95
-106.99
-119.1
-123.34
-116.75
-99.42
-74.35
-46.3
-20.03
1.18
16.08
25.02
28.91
28.38
23.6
14.71
2.46
-11.58
-25.38
-37.19
-46.29
-53.11
-58.88
-64.73
-71.09
-77.4
-82.52
-85.39
-85.71
-84.31
-82.83
-83.13
-86.41
-92.71
-100.89
-109.25
-116.43
-121.97
-126.38
-130.36
-133.97
-135.91
-133.81
-124.97
-107.53
-81.26
-47.67
-9.46
30.28
68.75
103.62
132.98
155.31
169.56
175.37
173.36
164.91
151.75
135.42
117.04
97.37
77.23
57.81
40.67
27.38
18.97
15.56
16.36
19.95
24.83
29.79
34.09
37.45
39.85
41.39
42.2
42.33
41.8
40.56
38.54
35.67
31.96
27.45
22.3
16.76
11.06
5.45
0.06
-5.01
-9.71
-13.98
-17.64
-20.45
-22.12
-22.44
-21.46
-19.47
-17.05
-14.84
-13.38
-12.92
-13.37
-14.33
-15.35
-16.0
-16.04
-15.46
-14.39
-13.09
-11.84
-10.94
-10.67
-11.19
-12.46
-14.33
-16.48
-18.53
-20.26
-21.58
-22.69
-23.94
-25.74
-28.42
-32.02
-36.23
-40.39
-43.59
-44.9
-43.66
-39.61
-33.01
-24.58
-15.3
-6.15
2.06
8.84
13.97
17.47
19.46
20.1
19.64
18.41
16.88
15.59
14.97
15.27
16.41
18.01
19.64
20.95
21.85
22.47
23.03
23.68
24.35
24.84
24.91
24.4
23.31
21.79
20.01
18.13
16.22
14.28
12.31
10.26
8.15
6.02
3.92
1.95
0.21
-1.25
-2.47
-3.57
-4.73
-6.12
-7.83
-9.87
-12.18
-14.69
-17.26
-19.8
-22.31
-24.86
-27.68
-31.03
-35.09
-39.71
-44.37
-48.19
-50.16
-49.5
-45.9
-39.63
-31.42
-22.22
-12.96
-4.32
3.26
9.6
14.62
18.39
20.98
22.53
23.25
23.43
23.34
23.23
23.23
23.36
23.52
23.61
23.55
23.36
23.13
23.0
23.0
23.1
23.13
22.91
22.28
21.21
19.75
18.06
16.28
14.55
12.96
11.53
10.21
8.9
7.45
5.75
3.8
1.7
-0.39
-2.35
-4.23
-6.22
-8.53
-11.29
-14.36
-17.43
-20.15
-22.35
-24.18
-26.03
-28.4
-31.59
-35.65
-40.31
-45.06
-49.26
-52.19
-53.17
-51.68
-47.46
-40.66
-31.85
-21.93
-11.84
-2.4
5.92
12.96
18.76
23.43
27.04
29.65
31.35
32.28
32.62
32.59
32.38
32.07
31.7
31.26
30.74
30.15
29.59
29.12
28.81
28.62
28.45
28.12
27.51
26.56
25.28
23.78
22.11
20.32
18.42
16.44
14.47
12.58
10.78
9.01
7.14
5.1
2.94
0.82
-1.06
-2.6
-3.9
-5.22
-6.87
-9.06
-11.77
-14.84
-17.96
-20.92
-23.61
-26.07
-28.44
-30.91
-33.69
-36.97
-40.87
-45.33
-49.99
-54.17
-56.9
-57.22
-54.43
-48.39
-39.62
-29.11
-18.03
-7.4
2.16
10.44
17.5
23.47
28.4
32.25
34.96
36.64
37.52
37.96
38.27
38.64
39.02
39.32
39.39
39.19
38.76
38.17
37.43
36.53
35.37
33.82
31.7
28.88
25.28
20.97
16.14
11.18
6.47
2.34
-1.05
-3.72
-5.78
-7.38
-8.57
-9.4
-9.98
-10.48
-11.14
-12.22
-13.79
-15.76
-17.83
-19.6
-20.75
-21.1
-20.71
-19.84
-18.92
-18.36
-18.48
-19.39
-20.88
-22.61
-24.14
-25.17
-25.66
-25.86
-26.19
-27.08
-28.79
-31.25
-34.02
-36.39
-37.49
-36.58
-33.24
-27.46
-19.71
-10.76
-1.47
7.38
15.31
22.11
27.8
32.46
36.12
38.76
40.27
40.58
39.76
38.1
35.98
33.83
32.04
30.75
30.01
29.76
29.96
30.54
31.44
32.47
33.38
33.85
33.63
32.65
31.04
29.08
27.08
25.26
23.6
21.98
20.18
18.06
15.63
13.02
10.43
8.03
5.88
3.91
1.96
-0.18
-2.66
-5.57
-8.86
-12.35
-15.78
-18.93
-21.67
-24.06
-26.3
-28.6
-31.13
-33.87
-36.62
-39.16
-41.28
-42.92
-44.17
-45.25
-46.42
-47.95
-49.97
-52.4
-54.82
-56.46
-56.42
-53.8
-48.13
-39.52
-28.73
-16.92
-5.27
5.33
14.44
22.0
28.12
32.92
36.4
38.61
39.63
39.72
39.18
38.29
37.27
36.21
35.2
34.3
33.66
33.41
33.62
34.16
34.79
35.09
34.64
33.13
30.49
26.98
23.07
19.28
15.93
13.1
10.63
8.37
6.3
4.57
3.38
2.82
2.71
2.66
2.28
1.36
-0.08
-1.74
-3.33
-4.64
-5.68
-6.58
-7.54
-8.67
-10.03
-11.58
-13.22
-14.82
-16.34
-17.81
-19.34
-21.09
-23.22
-25.85
-29.03
-32.71
-36.64
-40.34
-43.15
-44.3
-43.15
-39.4
-33.23
-25.31
-16.58
-8.01
-0.37
5.97
10.94
14.69
17.45
19.38
20.57
21.1
21.13
20.84
20.47
20.23
20.19
20.36
20.65
21.02
21.4
21.81
22.2
22.51
22.61
22.37
21.72
20.61
19.07
17.2
15.15
13.08
11.14
9.42
7.88
6.46
5.06
3.62
2.2
0.81
-0.48
-1.74
-3.02
-4.4
-5.87
-7.36
-8.8
-10.13
-11.44
-12.9
-14.71
-16.99
-19.71
-22.69
-25.65
-28.34
-30.59
-32.42
-33.98
-35.51
-37.24
-39.19
-41.18
-42.76
-43.35
-42.34
-39.41
-34.53
-28.04
-20.55
-12.71
-5.09
1.98
8.36
14.04
19.03
23.29
26.73
29.27
30.9
31.65
31.65
31.08
30.15
29.04
27.92
26.94
26.19
25.72
25.52
25.5
25.49
25.32
24.81
23.84
22.44
20.7
18.84
17.02
15.34
13.76
12.18
10.51
8.74
6.96
5.32
3.93
2.84
1.99
1.21
0.34
-0.77
-2.14
-3.76
-5.51
-7.32
-9.13
-10.96
-12.88
-14.94
-17.16
-19.42
-21.62
-23.66
-25.54
-27.37
-29.37
-31.75
-34.65
-38.09
-41.89
-45.65
-48.84
-50.82
-50.99
-48.94
-44.53
-37.97
-29.84
-20.9
-11.97
-3.75
3.31
9.04
13.51
16.9
19.39
21.1
22.13
22.54
22.51
22.27
22.04
21.96
22.06
22.25
22.42
22.5
22.51
22.51
22.57
22.69
22.81
22.78
22.47
21.77
20.67
19.27
17.75
16.27
15.0
13.97
13.14
12.4
11.63
10.75
9.72
8.56
7.31
6.06
4.9
3.93
3.19
2.65
2.19
1.62
0.83
-0.17
-1.19
-1.97
-2.29
-2.18
-1.85
-1.69
-1.96
-2.71
-3.72
-4.68
-5.31
-5.56
-5.58
-5.5
-5.22
-4.21
-1.69
2.97
9.98
18.94
28.99
39.13
48.34
55.6
59.55
58.55
50.91
35.95
14.85
-9.29
-32.28
-50.18
-60.59
-62.96
-58.1
-47.68
-33.04
-15.21
4.21
22.25
34.8
37.67
28.68
8.85
-18.54
-48.63
-76.7
-99.55
-116.07
-126.58
-132.4
-135.03
-136.17
-138.78
-145.52
-157.44
-173.19
-189.33
-201.31
-205.92
-202.07
-185.66
-157.67
-123.16
-88.8
-59.41
-38.07
-22.21
-8.84
4.71
21.1
41.67
67.53
99.84
139.51
186.23
238.11
290.53
337.44
372.62
390.71
389.35
369.55
334.24
286.07
226.48
156.13
77.33
-3.97
-78.65
-136.56
-169.99
-176.33
-158.62
-123.75
-80.31
-36.34
1.51
28.4
42.16
43.98
38.34
31.52
28.88
32.37
39.9
46.89
49.14
45.06
35.94
24.69
13.85
4.96
-1.08
-3.42
-1.53
3.64
8.74
8.92
0.07
-18.6
-42.78
-63.95
-72.15
-59.61
-23.86
31.04
95.1
154.67
195.89
208.8
190.54
146.71
89.59
33.57
-10.2
-37.59
-51.6
-59.29
-67.26
-78.58
-92.38
-105.59
-115.64
-121.87
-125.05
-125.86
-123.57
-115.87
-100.38
-76.65
-47.49
-18.55
3.7
14.43
12.5
0.8
-15.26
-29.99
-39.53
-42.54
-39.73
-32.45
-21.65
-7.55
9.66
28.99
48.29
64.62
75.25
78.59
74.54
64.34
49.95
33.33
16.02
-1.11
-17.51
-32.74
-46.2
-57.25
-65.52
-71.08
-74.55
-76.71
-78.07
-78.56
-77.61
-74.61
-69.49
-62.98
-56.38
-50.95
-47.29
-45.03
-43.12
-40.57
-37.05
-33.18
-30.25
-29.48
-31.46
-35.85
-41.48
-46.95
-51.17
-53.82
-55.31
-56.4
-57.76
-59.48
-60.98
-61.25
-59.25
-54.4
-46.85
-37.39
-27.16
-17.22
-8.19
-0.22
6.89
13.28
18.87
23.31
26.25
27.61
27.71
27.23
26.92
27.26
28.32
29.78
31.17
32.19
32.76
33.1
33.46
33.96
34.51
34.85
34.76
34.15
33.15
31.99
30.82
29.68
28.49
27.23
26.02
25.14
24.8
24.98
25.36
25.41
24.67
22.91
20.25
16.99
13.44
9.7
5.68
1.29
-3.51
-8.55
-13.51
-18.02
-21.81
-24.67
-26.56
-27.53
-27.76
-27.56
-27.31
-27.37
-27.88
-28.63
-29.0
-28.18
-25.37
-20.15
-12.63
-3.44
6.52
16.5
26.03
35.02
43.43
51.06
57.42
61.88
64.06
64.14
62.96
61.76
61.75
63.81
68.32
75.15
83.63
92.52
100.03
104.13
103.12
96.24
83.93
67.65
49.33
30.72
13.06
-2.97
-17.06
-29.14
-39.33
-47.93
-55.31
-61.71
-67.07
-71.06
-73.36
-73.93
-73.07
-71.14
-68.23
-64.02
-57.92
-49.55
-39.17
-27.78
-16.78
-7.54
-0.86
3.12
4.85
4.97
4.14
2.81
1.26
-0.36
-1.97
-3.54
-5.18
-7.13
-9.67
-12.99
-16.94
-21.03
-24.43
-26.24
-25.76
-22.8
-17.7
-11.26
-4.49
1.74
6.77
10.33
12.46
13.43
13.65
13.51
13.36
13.38
13.7
14.3
15.16
16.18
17.21
18.04
18.46
18.3
17.5
16.17
14.52
12.78
11.14
9.74
8.74
8.3
8.57
9.64
11.46
13.74
16.09
18.06
19.25
19.42
18.54
16.66
13.99
10.76
7.26
3.78
0.59
-2.1
-4.23
-5.87
-7.23
-8.54
-10.01
-11.66
-13.34
-14.86
-16.05
-16.95
-17.76
-18.81
-20.36
-22.53
-25.27
-28.38
-31.62
-34.67
-37.08
-38.27
-37.63
-34.67
-29.34
-22.1
-13.87
-5.75
1.29
6.73
10.47
12.78
14.09
14.8
15.2
15.43
15.6
15.68
15.66
15.49
15.2
14.85
14.7
14.98
15.88
17.43
19.42
21.52
23.31
24.51
24.99
24.75
23.9
22.55
20.8
18.75
16.56
14.4
12.43
10.7
9.13
7.55
5.83
3.98
2.19
0.69
-0.29
-0.73
-0.83
-0.9
-1.18
-1.78
-2.6
-3.46
-4.17
-4.61
-4.74
-4.62
-4.39
-4.26
-4.56
-5.63
-7.66
-10.59
-14.08
-17.62
-20.78
-23.4
-25.52
-27.31
-28.71
-29.35
-28.61
-25.91
-21.09
-14.56
-7.27
-0.35
5.19
8.84
10.55
10.68
9.76
8.35
6.95
5.87
5.24
4.95
4.75
4.34
3.58
2.6
1.79
1.59
2.31
3.92
6.13
8.46
10.55
12.22
13.5
14.55
15.45
16.16
16.56
16.51
16.03
15.23
14.35
13.6
13.02
12.5
11.86
10.97
9.86
8.7
7.68
6.89
6.24
5.47
4.3
2.57
0.36
-2.11
-4.55
-6.77
-8.71
-10.45
-12.1
-13.72
-15.28
-16.71
-17.95
-19.01
-20.01
-21.14
-22.61
-24.55
-26.92
-29.49
-31.76
-33.14
-33.07
-31.28
-27.85
-23.18
-17.82
-12.26
-6.87
-1.81
2.81
6.9
10.28
12.79
14.37
15.1
15.21
15.02
14.84
14.89
15.22
15.78
16.43
16.99
17.28
17.25
16.93
16.41
15.88
15.49
15.32
15.38
15.54
15.67
15.61
15.3
14.77
14.08
13.29
12.38
11.31
10.03
8.53
6.93
5.38
4.08
3.11
2.43
1.87
1.18
0.17
-1.15
-2.62
-3.94
-4.8
-5.1
-5.01
-4.93
-5.32
-6.52
-8.48
-10.85
-13.16
-15.0
-16.3
-17.25
-18.21
-19.47
-21.16
-23.17
-25.31
-27.35
-29.06
-30.17
-30.3
-29.12
-26.38
-22.14
-16.77
-10.94
-5.41
-0.89
2.17
3.63
3.64
2.62
1.18
-0.12
-0.9
-1.22
-1.5
-2.33
-4.19
-7.11
-10.62
-13.94
-16.37
-17.7
-18.39
-19.46
-21.99
-26.52
-32.76
-39.66
-45.82
-50.25
-52.84
-54.46
-56.54
-60.42
-66.7
-75.11
-84.72
-94.27
-102.29
-107.01
-106.28
-97.96
-80.56
-54.2
-21.12
14.47
47.52
73.86
91.75
102.21
108.05
112.25
116.53
121.23
126.49
133.72
146.23
168.14
201.82
245.5
292.75
334.52
363.32
376.88
379.08
377.51
379.01
385.86
394.87
399.79
395.02
378.84
353.85
325.02
296.66
270.3
244.62
217.15
186.45
153.14
119.68
88.85
62.08
38.38
14.84
-12.17
-44.88
-82.37
-120.3
-152.17
-171.84
-175.83
-164.41
-141.13
-111.25
-80.01
-51.74
-29.66
-16.05
-12.34
-18.71
-33.85
-55.29
-80.32
-107.19
-135.54
-165.92
-198.18
-230.25
-258.03
-276.5
-281.85
-273.09
-252.29
-223.36
-190.5
-156.55
-123.15
-91.76
-64.63
-45.12
-36.68
-41.29
-58.55
-86.15
-121.3
-162.12
-207.49
-255.6
-302.34
-340.9
-363.65
-365.15
-344.86
-307.67
-262.04
-216.87
-178.55
-149.87
-130.49
-118.46
-111.44
-107.19
-103.41
-97.77
-88.34
-74.37
-56.91
-38.36
-21.64
-9.06
-1.48
1.85
2.78
3.54
5.97
11.02
18.63
27.84
37.15
45.09
50.6
53.21
53.01
50.49
46.26
41.01
35.46
30.3
26.13
23.21
21.35
20.01
18.61
16.9
15.06
13.54
12.64
12.3
12.02
11.18
9.41
6.82
4.02
1.83
0.91
1.49
3.25
5.45
7.19
7.67
6.33
3.0
-2.18
-8.82
-16.37
-24.34
-32.39
-40.38
-48.26
-55.87
-62.7
-67.8
-69.97
-68.19
-62.07
-52.12
-39.68
-26.57
-14.37
-4.09
4.03
10.29
15.08
18.59
20.72
21.27
20.33
18.46
16.62
15.87
16.91
19.85
24.17
28.98
33.38
36.76
38.94
40.09
40.5
40.38
39.83
38.75
37.02
34.6
31.57
28.23
24.98
22.24
20.35
19.48
19.61
20.52
21.85
23.14
23.95
23.98
23.14
21.57
19.55
17.39
15.26
13.16
10.96
8.46
5.52
2.11
-1.64
-5.5
-9.28
-12.86
-16.25
-19.6
-23.11
-27.0
-31.29
-35.79
-39.96
-43.02
-44.15
-42.7
-38.41
-31.56
-22.88
-13.33
-3.91
4.61
11.87
17.81
22.64
26.6
29.83
32.36
34.17
35.26
35.76
35.92
36.01
36.23
36.7
37.44
38.44
39.68
41.07
42.44
43.53
44.1
43.98
43.16
41.81
40.19
38.57
37.12
35.92
34.93
34.04
33.09
31.95
30.56
28.93
27.21
25.57
24.18
23.08
22.18
21.28
20.13
18.56
16.57
14.26
11.83
9.39
6.92
4.32
1.46
-1.68
-4.93
-8.05
-10.8
-13.12
-15.25
-17.61
-20.68
-24.79
-30.06
-36.25
-42.91
-49.33
-54.68
-58.11
-58.91
-56.65
-51.35
-43.48
-33.87
-23.53
-13.4
-4.17
3.78
10.35
15.63
19.79
23.02
25.52
27.49
29.05
30.27
31.14
31.56
31.46
30.85
29.88
28.81
27.93
27.38
27.08
26.66
25.63
23.57
20.35
16.18
11.56
7.03
2.97
-0.5
-3.62
-6.77
-10.43
-15.05
-21.0
-28.53
-37.54
-47.37
-56.65
-63.62
-66.64
-64.99
-59.41
-52.05
-45.8
-43.29
-45.93
-53.46
-64.21
-75.64
-84.96
-89.38
-86.39
-74.07
-51.8
-21.2
13.45
45.69
68.83
78.39
73.95
59.46
41.66
27.28
20.32
21.11
26.74
33.1
37.03
37.37
35.02
32.09
31.16
34.43
43.06
56.37
71.39
83.27
86.62
77.58
55.47
23.5
-12.09
-43.85
-65.39
-73.09
-66.67
-48.6
-22.82
6.66
36.56
64.42
88.25
106.08
116.13
117.37
110.31
97.58
83.2
71.05
63.26
59.49
57.6
55.16
50.96
45.53
40.72
38.49
39.9
44.64
51.2
57.72
62.98
67.3
72.62
81.74
96.62
116.82
138.79
156.71
164.66
159.16
140.82
114.17
85.88
62.19
46.83
40.45
41.4
47.17
55.46
64.58
73.29
80.73
86.63
91.69
97.7
106.9
120.69
138.26
156.01
168.46
170.22
158.09
132.29
96.17
54.52
11.68
-29.63
-68.06
-102.36
-130.06
-147.23
-149.78
-135.82
-107.77
-72.69
-40.23
-19.18
-14.06
-23.67
-42.07
-61.25
-74.09
-76.19
-65.94
-43.69
-10.93
29.83
74.64
117.71
152.03
170.78
169.25
146.4
105.3
52.24
-4.99
-59.19
-105.13
-140.24
-164.13
-177.8
-182.7
-180.26
-171.93
-159.22
-143.91
-127.85
-112.69
-99.63
-89.25
-81.58
-76.22
-72.53
-69.74
-67.16
-64.21
-60.67
-56.77
-53.16
-50.8
-50.64
-53.34
-58.95
-66.8
-75.61
-83.93
-90.65
-95.43
-98.76
-101.62
-104.85
-108.61
-112.2
-114.32
-113.59
-109.25
-101.41
-91.1
-79.84
-69.16
-60.02
-52.53
-45.95
-38.97
-30.22
-18.78
-4.6
11.53
28.06
42.91
53.75
58.34
55.1
43.82
26.35
6.71
-9.57
-17.1
-12.24
5.6
33.99
68.47
104.2
137.16
164.64
185.02
197.31
200.93
195.93
183.3
165.08
144.04
122.95
103.61
86.39
70.23
53.34
34.25
12.5
-10.99
-34.42
-56.04
-75.02
-91.81
-107.78
-124.16
-141.21
-157.86
-172.03
-181.56
-184.79
-180.89
-169.78
-151.88
-128.18
-100.24
-70.14
-40.27
-12.87
10.31
28.1
39.81
45.15
44.34
38.4
29.2
19.06
9.99
2.8
-3.15
-9.58
-18.23
-29.97
-44.28
-59.66
-74.29
-86.89
-97.01
-104.9
-111.41
-117.76
-125.42
-135.75
-149.22
-164.73
-179.14
-187.86
-186.22
-171.09
-142.24
-102.62
-57.47
-12.91
25.65
54.35
71.31
76.49
71.41
58.85
42.33
25.56
11.78
3.26
0.96
4.57
12.65
22.97
33.18
41.43
46.81
49.53
50.55
50.93
51.22
51.16
49.89
46.51
40.63
32.73
23.96
15.73
9.14
4.56
1.65
-0.4
-2.47
-5.16
-8.64
-12.6
-16.46
-19.55
-21.27
-21.18
-19.08
-14.96
-8.97
-1.33
7.77
18.14
29.38
40.76
51.07
58.86
62.84
62.41
57.87
50.39
41.58
32.77
24.77
17.82
12.01
7.68
5.75
7.28
12.98
22.67
35.17
48.62
61.1
71.18
77.91
80.77
79.76
75.93
72.14
72.6
81.41
100.05
125.53
150.32
164.83
161.3
137.33
96.96
48.73
2.0
-36.73
-65.45
-85.73
-100.51
-112.01
-121.11
-127.97
-133.1
-137.6
-142.7
-148.78
-154.71
-158.2
-156.91
-149.73
-137.36
-121.95
-106.02
-91.52
-79.49
-70.36
-64.47
-62.32
-64.43
-70.78
-80.63
-92.39
-103.99
-113.02
-116.93
-113.14
-99.43
-74.58
-39.2
3.78
49.47
92.25
127.52
153.17
170.11
181.39
190.55
199.76
208.84
215.51
216.71
210.24
195.93
175.68
152.62
129.82
109.36
92.21
78.65
68.74
62.58
60.14
60.88
63.59
66.61
68.29
67.5
63.84
57.42
48.78
38.68
28.06
17.96
9.08
1.39
-6.08
-14.96
-26.56
-40.9
-56.25
-69.65
-78.21
-80.54
-77.54
-72.0
-67.37
-66.24
-69.52
-76.34
-84.71
-92.24
-96.59
-95.4
-86.22
-66.87
-36.25
4.67
52.18
100.32
142.44
173.34
191.14
197.8
198.09
197.48
199.9
206.56
216.07
225.77
233.14
236.54
235.17
228.38
215.42
195.71
169.51
138.6
106.18
75.98
51.07
32.87
20.97
13.74
9.26
6.18
4.01
2.81
2.69
3.36
4.09
4.08
2.95
1.1
-0.44
-0.54
1.24
4.16
6.34
5.42
-0.57
-12.55
-30.27
-52.58
-77.6
-102.86
-125.45
-142.3
-151.05
-150.86
-143.04
-130.58
-117.13
-105.58
-97.24
-91.98
-89.1
-88.38
-90.67
-97.58
-110.59
-129.87
-153.6
-178.11
-198.67
-210.83
-211.83
-201.55
-182.61
-159.53
-137.44
-120.56
-111.04
-108.54
-110.42
-112.59
-110.65
-101.08
-82.33
-55.34
-23.34
9.01
36.94
56.88
67.15
68.22
62.32
52.58
42.24
33.93
29.19
28.22
29.82
31.64
30.82
25.0
13.47
-1.98
-17.42
-28.2
-31.23
-26.79
-18.9
-13.79
-17.16
-31.6
-55.44
-83.4
-108.46
-124.16
-126.19
-112.89
-85.18
-45.92
0.6
49.14
93.96
129.42
150.92
155.93
144.97
121.75
92.35
63.42
40.29
25.54
19.08
19.18
23.91
32.11
43.12
55.99
68.89
79.26
84.85
84.65
79.43
71.15
62.03
53.52
46.05
39.28
32.62
25.75
18.72
11.76
5.04
-1.49
-8.26
-15.89
-25.02
-36.0
-48.63
-61.95
-74.34
-83.99
-89.36
-89.73
-85.29
-76.89
-65.65
-52.59
-38.51
-24.19
-10.57
1.2
9.98
15.1
16.63
15.41
12.76
10.0
8.06
7.32
7.71
8.89
10.45
11.97
13.11
13.64
13.52
12.89
12.1
11.63
11.92
13.31
15.97
19.83
24.6
29.68
34.19
37.11
37.45
34.53
28.03
18.0
4.72
-11.06
-27.93
-43.61
-55.47
-61.39
-60.76
-54.88
-46.47
-38.59
-33.49
-32.01
-33.78
-37.85
-43.19
-48.79
-53.46
-55.81
-54.5
-48.86
-39.37
-27.55
-15.39
-4.53
4.25
11.04
16.39
20.92
24.91
28.35
31.07
32.97
34.09
34.66
34.9
34.89
34.53
33.58
31.85
29.34
26.28
23.03
19.82
16.7
13.46
9.83
5.55
0.58
-4.91
-10.63
-16.26
-21.53
-26.22
-30.13
-33.08
-34.94
-35.68
-35.33
-33.97
-31.63
-28.27
-23.85
-18.42
-12.16
-5.54
0.86
6.41
10.58
13.07
13.73
12.67
10.2
6.94
3.76
1.68
1.56
3.91
8.71
15.48
23.56
32.32
41.32
50.19
58.35
64.94
68.94
69.47
66.24
59.76
51.16
41.76
32.65
24.27
16.61
9.54
3.24
-1.63
-4.29
-4.26
-1.76
2.44
7.4
12.48
17.49
22.32
26.6
29.42
29.72
26.96
21.66
15.46
10.38
7.89
8.21
10.4
12.96
14.74
15.44
15.53
15.81
16.8
18.52
20.46
21.98
22.53
21.83
19.82
16.56
12.25
7.17
1.6
-4.33
-10.87
-18.66
-28.54
-41.02
-55.73
-71.35
-85.8
-96.98
-103.38
-104.44
-100.44
-92.07
-80.12
-65.49
-49.47
-33.75
-20.29
-10.57
-4.99
-2.51
-1.05
1.71
7.33
15.99
26.45
36.62
44.4
48.49
48.85
46.66
43.88
42.6
44.4
49.92
58.69
69.38
80.25
89.63
96.3
99.75
100.29
98.93
97.1
96.22
97.33
100.87
106.7
114.33
123.1
132.21
140.56
146.69
148.78
145.08
134.57
117.44
95.29
70.77
46.92
26.29
10.44
-0.33
-7.01
-11.69
-17.35
-27.14
-43.62
-67.75
-98.44
-132.72
-166.58
-196.38
-219.9
-236.81
-248.2
-255.65
-260.24
-262.37
-262.16
-259.99
-256.84
-253.63
-250.28
-244.84
-233.6
-212.07
-176.74
-126.7
-64.53
4.05
71.97
132.93
183.13
221.79
250.35
270.84
284.52
291.4
290.68
281.83
265.22
241.92
212.86
178.16
137.38
90.89
41.09
-7.23
-48.21
-77.26
-92.98
-97.5
-95.13
-90.32
-85.87
-82.58
-79.98
-77.47
-75.06
-73.31
-72.82
-73.7
-75.55
-77.78
-80.02
-82.16
-84.19
-86.0
-87.18
-87.11
-85.08
-80.65
-73.78
-64.88
-54.74
-44.28
-34.32
-25.32
-17.35
-10.17
-3.45
3.03
9.26
14.97
19.79
23.39
25.63
26.67
26.84
26.57
26.24
26.07
26.1
26.21
26.17
25.76
24.77
23.14
20.91
18.18
15.08
11.76
8.35
5.01
1.86
-1.01
-3.61
-6.05
-8.47
-10.98
-13.53
-15.95
-17.98
-19.41
-20.21
-20.52
-20.63
-20.88
-21.52
-22.59
-23.91
-25.12
-25.88
-26.01
-25.62
-25.15
-25.18
-26.29
-28.8
-32.68
-37.44
-42.18
-45.8
-47.15
-45.38
-40.14
-31.65
-20.67
-8.25
4.51
16.65
27.38
36.06
42.27
45.86
47.09
46.64
45.43
44.34
43.92
44.19
44.82
45.24
44.96
43.78
41.76
39.27
36.8
34.81
33.49
32.59
31.41
29.03
24.71
18.4
10.88
3.58
-1.93
-4.58
-4.08
-0.93
3.91
9.35
14.38
18.13
19.81
18.86
15.17
9.24
2.18
-4.69
-10.23
-13.98
-16.21
-17.68
-19.26
-21.46
-24.3
-27.38
-30.14
-32.14
-33.24
-33.55
-33.35
-33.0
-32.86
-33.32
-34.8
-37.64
-41.82
-46.81
-51.49
-54.4
-54.19
-50.12
-42.39
-32.04
-20.63
-9.74
-0.47
6.7
11.93
15.73
18.69
21.17
23.29
24.91
25.86
26.12
25.84
25.31
24.76
24.3
23.83
23.18
22.22
20.92
19.38
17.71
15.94
13.99
11.78
9.18
6.22
2.99
-0.35
-3.63
-6.78
-9.76
-12.55
-15.14
-17.53
-19.71
-21.7
-23.57
-25.37
-27.05
-28.51
-29.6
-30.22
-30.43
-30.44
-30.61
-31.24
-32.5
-34.26
-36.1
-37.42
-37.58
-36.07
-32.61
-27.23
-20.29
-12.34
-4.15
3.43
9.69
14.2
17.04
18.78
20.38
22.75
26.51
31.71
37.92
44.43
50.58
55.83
59.82
62.31
63.18
62.45
60.36
57.39
54.1
50.95
48.18
45.8
43.63
41.47
39.18
36.67
33.93
31.04
28.13
25.36
22.83
20.54
18.35
16.11
13.72
11.26
8.95
7.03
5.63
4.64
3.76
2.66
1.11
-0.9
-3.17
-5.42
-7.36
-8.84
-9.82
-10.33
-10.39
-9.97
-9.09
-7.81
-6.36
-5.08
-4.31
-4.35
-5.35
-7.27
-10.0
-13.31
-16.92
-20.48
-23.62
-25.99
-27.4
-27.97
-28.1
-28.4
-29.53
-31.91
-35.53
-39.84
-43.82
-46.29
-46.16
-42.88
-36.57
-27.99
-18.24
-8.46
0.47
8.04
14.04
18.53
21.74
24.0
25.75
27.34
28.96
30.52
31.74
32.27
31.94
30.85
29.32
27.71
26.31
25.2
24.37
23.78
23.42
23.27
23.25
23.17
22.84
22.08
20.9
19.42
17.81
16.21
14.65
13.08
11.45
9.77
8.14
6.68
5.53
4.79
4.5
4.63
5.02
5.4
5.42
4.79
3.37
1.25
-1.29
-3.87
-6.15
-7.98
-9.36
-10.45
-11.46
-12.54
-13.82
-15.36
-17.18
-19.32
-21.78
-24.57
-27.69
-31.17
-34.96
-38.95
-42.84
-46.1
-48.05
-48.0
-45.45
-40.31
-32.95
-24.14
-14.87
-6.07
1.59
7.69
12.15
15.06
16.69
17.38
17.44
17.12
16.54
15.61
14.1
11.74
8.3
3.83
-1.32
-6.44
-10.6
-12.83
-12.42
-9.17
-3.43
3.86
11.56
18.51
23.85
27.16
28.37
27.65
25.3
21.67
17.1
11.97
6.66
1.49
-3.36
-7.8
-11.88
-15.65
-19.15
-22.33
-25.1
-27.38
-29.15
-30.38
-31.06
-31.2
-30.79
-29.85
-28.43
-26.57
-24.36
-21.84
-19.05
-16.15
-13.39
-11.2
-10.06
-10.37
-12.3
-15.65
-19.83
-23.95
-27.04
-28.28
-27.23
-23.89
-18.7
-12.4
-5.79
0.44
5.86
10.27
13.72
16.38
18.4
19.91
20.91
21.4
21.32
20.74
19.78
18.67
17.63
16.81
16.26
15.91
15.65
15.37
15.01
14.64
14.35
14.22
14.21
14.25
14.15
13.75
12.99
11.98
10.94
10.12
9.75
9.85
10.3
10.8
11.06
10.81
9.95
8.54
6.77
4.85
2.93
1.04
-0.84
-2.72
-4.56
-6.26
-7.66
-8.66
-9.27
-9.62
-9.99
-10.71
-12.09
-14.25
-17.16
-20.57
-24.06
-27.22
-29.7
-31.16
-31.36
-30.16
-27.8
-24.98
-22.72
-21.94
-22.8
-24.5
-25.47
-24.14
-19.84
-13.2
-5.87
0.35
4.36
6.25
6.97
7.68
9.05
11.03
13.0
14.2
13.93
11.75
7.28
0.23
-9.65
-22.37
-37.47
-54.07
-70.87
-86.54
-100.07
-111.02
-119.66
-126.77
-133.15
-139.09
-143.76
-145.18
-140.5
-126.9
-102.55
-67.34
-23.17
26.6
77.94
127.21
171.91
210.9
243.94
270.97
291.29
303.17
304.12
291.79
265.34
226.28
178.87
129.43
84.94
51.6
33.54
32.29
46.67
73.06
106.17
139.9
168.61
188.13
196.37
193.18
179.56
156.87
126.34
89.2
47.16
2.67
-41.15
-81.0
-113.99
-137.99
-151.97
-156.14
-152.22
-143.32
-133.44
-126.31
-124.18
-127.03
-132.79
-138.5
-141.81
-141.91
-139.47
-135.73
-131.47
-126.6
-120.63
-113.36
-105.41
-98.0
-92.29
-88.71
-86.89
-86.13
-86.03
-86.75
-88.54
-91.0
-92.66
-91.43
-85.65
-75.38
-62.72
-50.96
-42.83
-38.89
-36.89
-32.68
-22.08
-2.87
24.08
55.19
85.59
111.03
129.09
139.42
143.0
141.03
134.31
123.16
108.03
90.09
71.33
54.14
40.51
31.42
26.83
25.96
27.85
31.69
36.71
42.0
46.43
48.95
49.03
46.96
43.7
40.38
37.74
35.85
34.29
32.64
30.85
29.32
28.51
28.52
28.96
29.12
28.41
26.68
24.29
21.84
19.75
18.02
16.11
13.28
8.85
2.57
-5.21
-13.56
-21.18
-26.8
-29.59
-29.56
-27.47
-24.61
-22.16
-20.72
-20.16
-19.85
-19.21
-18.2
-17.53
-18.35
-21.59
-27.28
-34.09
-39.57
-40.92
-36.04
-24.57
-8.17
9.98
26.21
37.66
43.0
42.43
37.17
28.73
18.49
7.43
-3.99
-16.03
-29.84
-47.33
-70.67
-101.22
-138.56
-180.05
-221.14
-256.45
-281.2
-292.26
-288.7
-271.59
-243.16
-205.87
-161.81
-112.64
-60.15
-6.84
43.82
87.95
122.44
146.04
159.74
166.05
167.7
166.4
162.44
155.3
144.61
130.9
115.55
100.12
85.62
72.33
60.12
49.19
40.37
34.97
34.11
38.0
45.63
55.06
64.19
71.41
75.92
77.56
76.4
72.5
65.98
57.49
48.42
40.71
36.2
35.84
39.11
44.12
48.21
48.93
44.99
36.88
26.85
18.01
13.28
14.27
20.58
29.96
38.82
43.01
38.55
22.28
-7.29
-48.93
-97.95
-146.42
-184.74
-204.35
-200.78
-175.31
-134.6
-88.31
-45.75
-13.19
7.01
15.7
15.43
9.21
-0.01
-9.29
-15.66
-16.54
-10.62
1.21
15.76
28.09
33.11
27.57
11.64
-10.64
-32.37
-45.96
-45.75
-30.11
-2.19
31.37
62.87
86.43
99.81
104.52
104.25
102.62
101.53
100.74
98.79
94.46
87.97
81.09
76.13
74.37
74.9
74.42
68.48
53.46
28.56
-3.48
-37.11
-66.25
-86.75
-97.97
-102.48
-104.22
-105.99
-108.01
-108.2
-103.87
-93.59
-78.28
-60.76
-44.22
-30.94
-21.96
-17.82
-19.54
-28.91
-47.46
-74.73
-107.21
-138.9
-163.52
-177.19
-180.5
-178.25
-177.17
-182.35
-194.45
-209.37
-220.6
-222.97
-215.65
-202.41
-189.13
-180.05
-175.3
-170.88
-161.11
-142.08
-113.26
-76.83
-35.52
9.18
56.81
105.45
149.35
178.91
184.23
160.29
111.0
49.2
-7.52
-43.34
-49.41
-25.61
21.21
80.72
142.2
196.16
234.72
252.14
245.81
217.57
174.21
126.11
84.57
58.96
54.61
72.41
109.24
158.47
210.96
256.32
285.16
291.64
275.43
241.55
197.86
151.55
106.58
63.65
22.75
-13.72
-39.97
-49.12
-37.51
-8.43
27.81
57.61
69.53
58.18
24.78
-25.2
-85.1
-148.58
-209.33
-260.22
-293.36
-302.17
-283.82
-241.07
-181.88
-117.17
-57.98
-13.35
10.64
11.45
-9.48
-46.54
-90.82
-132.49
-164.1
-182.87
-190.64
-191.48
-188.31
-180.69
-164.91
-136.8
-95.07
-43.27
10.87
58.05
90.72
105.33
102.73
87.38
65.65
44.12
28.26
21.26
24.05
35.79
54.8
79.33
107.67
137.5
165.37
186.64
196.4
191.43
171.47
139.83
101.95
63.31
26.93
-7.72
-44.05
-85.78
-133.79
-184.31
-229.4
-259.98
-269.78
-257.9
-228.67
-188.9
-144.67
-99.8
-56.42
-17.04
14.2
32.18
33.06
16.27
-15.33
-57.07
-104.41
-153.69
-201.16
-241.5
-267.84
-273.3
-253.91
-210.77
-150.07
-81.03
-12.83
47.53
95.89
130.36
150.64
157.67
154.21
145.29
137.79
138.73
152.49
178.66
211.52
241.88
260.98
264.4
254.06
237.08
221.99
214.3
213.97
216.28
215.47
208.88
198.99
192.13
194.67
208.9
231.1
252.8
264.47
259.82
238.42
205.43
169.03
136.87
113.52
99.95
94.91
97.09
106.57
124.68
152.3
187.68
225.37
256.92
273.55
269.44
243.98
201.87
151.01
99.29
51.81
9.79
-28.48
-65.75
-103.92
-143.22
-182.55
-220.41
-255.3
-285.54
-308.88
-322.36
-323.54
-312.34
-292.39
-271.15
-258.06
-261.58
-286.14
-330.16
-386.03
-441.97
-485.35
-506.19
-499.94
-468.36
-418.39
-359.31
-299.54
-244.28
-194.91
-150.21
-108.41
-68.68
-31.26
3.36
35.47
66.52
98.58
133.5
172.48
216.16
264.45
316.32
368.87
416.8
452.87
469.8
462.78
431.56
380.83
318.68
253.91
193.43
140.86
96.47
58.32
23.75
-9.34
-41.59
-72.03
-98.27
-117.37
-126.72
-124.78
-111.47
-88.32
-58.82
-28.42
-4.01
7.67
2.33
-19.77
-53.24
-89.21
-118.31
-133.88
-133.57
-118.93
-93.67
-62.0
-27.98
4.37
30.82
47.57
52.48
46.2
32.11
15.0
-0.75
-12.59
-20.03
-23.79
-24.65
-22.71
-17.61
-9.1
2.25
14.97
27.19
37.39
44.82
49.52
51.82
51.83
49.3
43.85
35.51
25.02
13.68
2.75
-7.06
-15.87
-24.3
-32.87
-41.49
-49.38
-55.41
-58.62
-58.63
-55.65
-50.25
-43.01
-34.36
-24.52
-13.61
-1.74
10.79
23.53
35.7
46.28
54.2
58.56
58.96
55.67
49.54
41.77
33.58
25.97
19.45
14.09
9.62
5.69
2.14
-0.96
-3.38
-4.9
-5.6
-5.94
-6.71
-8.74
-12.66
-18.62
-26.21
-34.68
-43.22
-51.39
-59.23
-67.17
-75.66
-84.78
-94.09
-102.86
-110.37
-116.06
-119.17
-118.36
-111.89
-98.44
-78.12
-52.87
-25.79
0.18
23.5
44.2
62.94
79.65
92.75
99.69
98.49
89.15
73.99
56.72
40.79
28.31
19.98
15.87
16.18
21.38
31.63
46.14
62.98
79.49
93.16
102.51
107.4
108.72
107.74
105.57
103.0
100.54
98.7
97.98
98.65
100.58
103.18
105.58
107.08
107.34
106.5
104.81
102.4
99.15
94.71
88.82
81.59
73.56
65.54
58.23
51.85
45.91
39.38
31.04
20.02
6.15
-9.94
-27.08
-43.97
-59.54
-73.09
-84.26
-92.82
-98.57
-101.28
-100.83
-97.43
-91.67
-84.49
-76.81
-69.22
-61.85
-54.43
-46.59
-38.32
-30.02
-22.4
-16.16
-11.68
-8.95
-7.81
-8.21
-10.32
-14.4
-20.52
-28.24
-36.7
-44.8
-51.49
-56.04
-58.09
-57.68
-55.19
-51.33
-46.99
-43.03
-40.04
-38.1
-36.75
-35.17
-32.5
-28.25
-22.57
-16.16
-9.97
-4.52
0.61
6.94
16.4
30.3
48.09
66.79
81.51
86.82
78.39
53.89
13.51
-39.98
-101.22
-162.37
-213.87
-246.22
-252.54
-231.0
-185.92
-126.64
-64.48
-9.29
33.01
60.87
75.83
80.67
78.13
70.62
60.39
49.78
40.81
34.62
31.02
28.73
25.89
21.16
14.35
6.6
-0.02
-3.34
-1.87
4.48
14.29
24.92
33.37
37.31
35.88
30.01
22.04
14.72
10.15
8.99
10.4
12.6
13.75
12.74
9.62
5.46
1.78
-0.02
0.86
4.65
11.12
19.68
29.03
36.79
39.49
33.72
17.96
-5.51
-30.55
-49.07
-54.4
-44.42
-22.65
3.3
25.08
36.96
37.3
27.98
12.36
-6.55
-26.95
-47.69
-67.35
-83.72
-94.39
-97.98
-95.2
-88.92
-82.8
-79.37
-78.42
-76.99
-71.06
-58.02
-38.67
-17.1
1.29
12.78
17.11
17.36
17.72
20.81
26.42
32.35
36.45
38.18
38.82
40.16
43.23
47.81
53.07
58.5
64.42
71.32
78.76
84.83
86.66
81.76
69.16
49.53
24.37
-5.33
-39.58
-78.96
-123.42
-171.09
-218.0
-258.76
-288.03
-301.93
-299.21
-281.39
-252.01
-215.23
-174.28
-130.33
-82.34
-28.29
33.05
99.96
166.95
225.76
267.66
286.07
278.64
247.74
199.39
141.48
81.97
27.98
-14.59
-41.22
-49.28
-38.88
-13.5
20.24
54.08
80.37
94.26
94.8
84.66
68.75
52.3
39.44
32.57
32.49
38.82
50.36
65.34
81.25
95.49
105.87
111.16
111.41
107.59
100.95
92.35
82.01
69.75
55.61
40.13
24.49
10.1
-1.87
-10.88
-16.99
-20.66
-22.43
-22.73
-21.84
-20.08
-17.81
-15.5
-13.5
-11.94
-10.63
-9.16
-7.07
-4.12
-0.34
3.91
8.08
11.49
13.59
14.0
12.77
10.37
7.71
5.79
5.32
6.4
8.31
9.85
9.75
7.33
2.76
-3.01
-8.82
-13.94
-18.5
-23.38
-29.77
-38.56
-50.08
-64.12
-80.27
-98.15
-117.58
-138.29
-159.72
-180.8
-199.99
-215.56
-225.95
-229.99
-227.09
-217.27
-201.16
-180.18
-156.62
-133.65
-114.85
-103.18
-99.58
-102.03
-105.68
-104.35
-92.85
-69.21
-35.54
2.68
38.79
67.29
85.51
93.75
94.36
90.49
85.16
80.86
79.49
82.27
89.59
101.03
115.49
131.69
148.56
165.28
181.03
194.8
205.31
211.43
212.79
210.12
205.1
199.77
196.0
195.36
199.25
208.67
223.68
242.63
262.04
277.46
284.99
282.85
271.93
254.9
234.49
212.13
187.62
160.02
128.96
95.14
60.01
24.7
-10.97
-48.5
-90.04
-137.42
-191.51
-251.68
-315.48
-378.57
-435.06
-478.69
-504.74
-511.75
-502.31
-482.08
-457.34
-432.4
-408.21
-382.76
-353.07
-317.46
-276.75
-233.97
-192.92
-156.6
-126.24
-101.44
-80.78
-62.7
-46.05
-30.32
-15.48
-1.66
11.16
23.21
34.74
45.81
55.93
64.16
69.48
71.43
70.52
68.26
66.67
67.44
71.29
77.65
84.92
91.2
94.94
95.47
93.11
88.85
83.92
79.35
75.68
73.0
71.0
69.27
67.45
65.26
62.6
59.5
56.12
52.65
49.28
46.07
42.95
39.66
35.84
31.23
25.76
19.75
13.71
8.3
3.97
0.94
-0.88
-1.73
-1.84
-1.46
-0.76
-0.02
0.46
0.35
-0.51
-2.01
-3.89
-5.81
-7.64
-9.6
-12.17
-15.82
-20.72
-26.44
-32.01
-36.15
-37.64
-35.69
-30.12
-21.35
-10.32
1.67
13.07
22.41
28.53
31.05
30.41
27.77
24.52
21.73
19.89
18.91
18.51
18.57
19.23
20.72
23.07
25.94
28.73
30.87
32.13
32.67
32.89
33.08
33.2
32.81
31.34
28.37
23.93
18.47
12.74
7.48
3.13
-0.19
-2.62
-4.34
-5.41
-5.89
-5.92
-5.78
-5.83
-6.27
-6.82
-6.75
-5.1
-1.13
5.4
14.03
23.87
33.87
43.08
50.74
56.24
59.0
58.59
54.81
47.93
38.66
28.08
17.35
7.48
-0.84
-7.32
-12.01
-15.29
-17.73
-20.0
-22.7
-26.19
-30.43
-34.95
-39.01
-41.76
-42.48
-40.75
-36.48
-29.85
-21.16
-10.8
0.82
13.08
25.16
36.05
44.75
50.65
53.83
55.13
55.89
57.42
60.39
64.5
68.58
71.13
71.03
68.09
63.15
57.78
53.67
52.02
53.18
56.41
59.88
61.0
57.06
46.19
28.3
5.59
-17.92
-37.8
-51.27
-58.76
-64.17
-73.41
-91.65
-120.5
-156.61
-192.35
-218.4
-226.94
-214.02
-180.42
-130.9
-72.47
-12.74
41.59
85.39
115.6
131.27
133.51
125.01
109.4
90.53
71.87
56.07
44.76
38.49
36.71
37.94
40.24
41.82
41.56
39.18
35.0
29.49
22.94
15.34
6.59
-3.1
-13.11
-22.36
-29.75
-34.61
-37.1
-38.32
-40.0
-43.82
-50.68
-60.15
-70.41
-78.91
-83.08
-81.32
-73.39
-60.42
-44.44
-27.71
-12.16
1.03
11.6
20.09
27.58
35.2
43.62
52.73
61.57
68.69
72.8
73.3
70.56
65.69
60.08
54.86
50.65
47.59
45.63
44.68
44.6
45.05
45.35
44.59
41.86
36.63
29.06
19.98
10.62
2.21
-4.45
-9.11
-12.11
-14.13
-15.85
-17.7
-19.71
-21.61
-22.95
-23.49
-23.29
-22.61
-21.84
-21.07
-20.12
-18.58
-16.17
-13.09
-10.05
-8.07
-8.06
-10.37
-14.59
-19.66
-24.09
-26.15
-23.95
-15.72
-0.24
22.43
50.31
79.42
104.63
121.11
125.96
118.92
102.03
78.46
51.18
22.23
-7.04
-35.4
-61.11
-82.05
-96.31
-102.97
-102.49
-96.51
-87.1
-75.96
-63.87
-50.66
-35.71
-18.56
0.51
20.35
39.16
55.13
67.04
74.61
78.54
80.12
80.83
82.02
84.66
89.23
95.68
103.46
111.64
119.15
125.03
128.7
129.95
128.9
125.96
121.69
116.69
111.52
106.55
101.89
97.43
92.86
87.89
82.32
76.01
68.78
60.14
49.3
35.15
16.6
-7.12
-36.04
-69.11
-104.26
-138.77
-170.16
-196.98
-219.26
-237.97
-253.98
-266.82
-274.21
-272.64
-258.91
-231.66
-192.29
-144.8
-94.54
-46.75
-5.32
27.66
51.78
67.76
76.85
80.41
79.67
75.68
69.31
61.16
51.26
38.84
22.44
0.64
-26.83
-58.24
-89.9
-117.35
-137.2
-148.56
-153.18
-154.27
-154.49
-154.57
-153.26
-148.46
-138.71
-124.01
-105.42
-83.92
-59.49
-31.05
2.48
40.8
81.42
120.04
152.03
174.04
185.13
186.6
181.1
171.25
158.81
144.6
128.92
112.04
94.43
76.67
59.05
41.4
23.22
4.09
-15.78
-35.35
-52.83
-66.16
-73.75
-74.92
-70.15
-60.88
-49.16
-37.1
-26.49
-18.51
-13.65
-11.8
-12.31
-14.33
-17.07
-20.03
-23.09
-26.38
-30.01
-33.91
-37.67
-40.75
-42.63
-43.07
-42.15
-40.16
-37.46
-34.24
-30.44
-25.86
-20.35
-14.02
-7.46
-1.64
2.31
3.47
1.55
-3.02
-9.15
-15.48
-20.83
-24.46
-26.25
-26.55
-26.03
-25.46
-25.54
-26.75
-29.18
-32.47
-35.81
-38.19
-38.69
-36.74
-32.36
-26.13
-19.03
-12.08
-6.12
-1.61
1.43
3.3
4.41
5.19
5.95
6.96
8.42
10.46
13.03
15.88
18.59
20.74
22.02
22.45
22.29
21.92
21.66
21.71
22.07
22.66
23.36
24.08
24.78
25.48
26.27
27.15
28.06
28.81
29.11
28.74
27.64
25.93
23.9
21.86
20.07
18.66
17.57
16.61
15.5
13.95
11.82
9.22
6.54
4.24
2.68
1.96
1.95
2.4
3.11
3.94
4.72
5.19
4.94
3.65
1.22
-2.12
-5.94
-9.91
-13.88
-17.9
-21.95
-25.78
-28.89
-30.75
-31.2
-30.57
-29.66
-29.42
-30.58
-33.33
-37.27
-41.49
-44.87
-46.3
-44.96
-40.62
-33.65
-24.94
-15.67
-6.82
0.98
7.65
13.39
18.49
23.05
26.96
30.03
32.15
33.44
34.09
34.34
34.27
33.87
33.08
31.94
30.69
29.6
28.88
28.55
28.43
28.26
27.87
27.25
26.56
25.94
25.44
24.98
24.36
23.51
22.49
21.51
20.71
20.11
19.54
18.75
17.69
16.48
15.44
14.79
14.53
14.35
13.83
12.68
10.98
9.1
7.57
6.69
6.45
6.54
6.55
6.16
5.29
4.06
2.65
1.18
-0.28
-1.75
-3.19
-4.54
-5.72
-6.68
-7.46
-8.21
-9.12
-10.41
-12.2
-14.49
-17.09
-19.76
-22.2
-24.27
-26.0
-27.56
-29.2
-31.1
-33.24
-35.47
-37.58
-39.45
-41.13
-42.78
-44.51
-46.41
-48.42
-50.5
-52.59
-54.66
-56.58
-57.98
-58.23
-56.61
-52.55
-45.89
-37.06
-26.92
-16.54
-6.87
1.49
8.38
13.94
18.48
22.21
25.22
27.44
28.69
28.89
28.06
26.38
24.19
21.78
19.4
17.12
14.95
12.92
11.22
10.26
10.47
12.19
15.34
19.33
23.16
25.78
26.39
24.83
21.57
17.55
13.89
11.52
11.08
12.76
16.38
21.46
27.31
33.13
38.09
41.52
43.03
42.63
40.71
37.86
34.61
31.17
27.42
23.3
19.24
16.37
16.2
19.75
26.68
35.0
41.67
43.92
40.63
32.83
23.16
14.48
8.55
5.39
3.73
2.05
-0.5
-3.72
-6.78
-8.88
-9.81
-10.01
-10.2
-10.89
-12.05
-13.21
-13.77
-13.37
-12.16
-10.65
-9.54
-9.38
-10.47
-12.87
-16.47
-20.99
-25.99
-30.76
-34.38
-35.94
-34.95
-31.66
-27.12
-22.87
-20.38
-20.41
-22.67
-25.91
-28.42
-28.7
-25.95
-20.26
-12.32
-3.02
6.83
16.62
25.73
33.47
39.06
41.88
41.72
38.86
33.97
27.67
20.31
11.8
1.93
-9.33
-21.38
-32.94
-42.34
-47.93
-48.65
-44.41
-36.19
-25.73
-15.09
-5.93
0.9
5.53
8.79
11.72
14.95
18.44
21.59
23.63
24.13
23.16
21.24
18.94
16.63
14.31
11.79
8.98
6.06
3.44
1.53
0.44
-0.09
-0.69
-1.98
-4.39
-7.86
-11.94
-15.95
-19.3
-21.74
-23.48
-25.11
-27.36
-30.8
-35.54
-41.07
-46.41
-50.35
-51.81
-50.25
-45.72
-38.82
-30.5
-21.75
-13.43
-6.14
-0.17
4.5
8.16
11.27
14.33
17.65
21.22
24.69
27.57
29.43
30.09
29.7
28.58
27.08
25.49
23.96
22.65
21.67
21.1
20.95
21.06
21.19
21.09
20.68
20.02
19.29
18.67
18.25
17.99
17.85
17.77
17.74
17.75
17.73
17.56
17.08
16.19
14.85
13.11
11.12
9.09
7.27
5.83
4.84
4.19
3.63
2.9
1.86
0.59
-0.64
-1.56
-2.02
-2.07
-1.95
-1.88
-1.94
-2.07
-2.11
-1.94
-1.61
-1.32
-1.31
-1.74
-2.62
-3.79
-5.03
-6.24
-7.39
-8.54
-9.77
-11.05
-12.29
-13.44
-14.62
-16.11
-18.17
-20.98
-24.38
-28.02
-31.5
-34.62
-37.51
-40.55
-44.16
-48.48
-53.19
-57.48
-60.3
-60.72
-58.22
-52.84
-45.14
-36.05
-26.57
-17.61
-9.87
-3.73
0.73
3.75
5.82
7.53
9.34
11.43
13.63
15.54
16.67
16.69
15.47
13.16
10.06
6.71
3.84
2.28
2.78
5.56
10.1
15.15
19.16
20.92
20.1
17.45
14.37
12.36
12.24
13.97
16.75
19.6
21.89
23.6
25.2
27.31
30.25
33.88
37.64
40.9
43.31
44.91
46.0
46.81
47.14
46.35
43.7
38.86
32.35
25.44
19.75
16.41
15.63
16.59
17.97
18.71
18.67
18.52
19.32
21.69
25.23
28.57
29.93
28.01
22.63
14.87
6.51
-0.68
-5.73
-8.66
-10.26
-11.59
-13.45
-16.13
-19.48
-23.07
-26.52
-29.65
-32.49
-35.28
-38.31
-41.72
-45.39
-48.88
-51.56
-52.9
-52.66
-51.05
-48.51
-45.49
-42.16
-38.41
-34.03
-28.94
-23.44
-18.01
-13.16
-9.15
-5.88
-3.05
-0.36
2.33
4.95
7.3
9.18
10.5
11.3
11.67
11.82
11.94
12.28
13.02
14.27
16.0
17.98
19.89
21.42
22.37
22.7
22.52
22.01
21.33
20.55
19.7
18.76
17.78
16.82
15.95
15.22
14.57
13.91
13.17
12.3
11.32
10.26
9.14
7.96
6.73
5.51
4.44
3.65
3.21
3.05
2.95
2.69
2.05
0.98
-0.48
-2.24
-4.23
-6.41
-8.71
-10.99
-13.08
-14.78
-16.09
-17.18
-18.43
-20.21
-22.74
-25.92
-29.43
-32.83
-35.8
-38.23
-40.27
-42.21
-44.34
-46.83
-49.68
-52.64
-55.18
-56.54
-55.78
-52.03
-44.8
-34.19
-21.07
-6.87
6.77
18.46
27.45
33.65
37.52
39.71
40.74
40.93
40.42
39.34
37.89
36.34
34.92
33.7
32.6
31.44
30.1
28.64
27.23
26.11
25.43
25.19
25.25
25.35
25.22
24.68
23.63
22.15
20.43
18.67
17.07
15.72
14.58
13.54
12.5
11.42
10.37
9.47
8.79
8.35
8.06
7.82
7.54
7.18
6.75
6.27
5.81
5.51
5.43
5.65
6.04
6.41
6.51
6.15
5.32
4.09
2.6
0.95
-0.76
-2.49
-4.1
-5.46
-6.42
-6.97
-7.22
-7.36
-7.54
-7.72
-7.81
-7.65
-7.27
-6.88
-6.92
-7.91
-10.27
-14.17
-19.5
-25.79
-32.32
-38.3
-43.07
-46.36
-48.36
-49.63
-50.81
-52.33
-54.13
-55.71
-56.28
-55.12
-51.82
-46.45
-39.48
-31.6
-23.57
-15.96
-9.18
-3.35
1.54
5.62
9.1
12.17
14.99
17.67
20.22
22.55
24.51
25.93
26.74
26.98
26.83
26.55
26.41
26.58
27.11
27.89
28.72
29.36
29.59
29.31
28.53
27.34
25.93
24.49
23.18
22.15
21.41
20.9
20.43
19.78
18.75
17.3
15.55
13.74
12.09
10.74
9.65
8.69
7.78
6.88
6.04
5.33
4.73
4.12
3.32
2.21
0.79
-0.8
-2.29
-3.44
-4.16
-4.52
-4.71
-4.98
-5.5
-6.29
-7.24
-8.17
-8.93
-9.48
-9.86
-10.24
-10.77
-11.58
-12.72
-14.18
-15.94
-17.93
-20.09
-22.28
-24.35
-26.16
-27.71
-29.19
-30.88
-33.02
-35.59
-38.19
-40.05
-40.34
-38.43
-34.11
-27.72
-19.99
-11.82
-4.01
2.84
8.48
12.95
16.48
19.38
21.82
23.83
25.26
25.96
25.88
25.14
23.98
22.67
21.37
20.16
19.06
18.12
17.45
17.2
17.41
17.98
18.64
19.08
18.99
18.23
16.84
15.03
13.18
11.63
10.64
10.28
10.43
10.89
11.42
11.85
12.13
12.28
12.31
12.16
11.75
11.0
9.9
8.54
7.07
5.61
4.24
2.94
1.7
0.56
-0.42
-1.14
-1.57
-1.77
-1.89
-2.12
-2.59
-3.34
-4.32
-5.39
-6.47
-7.49
-8.48
-9.52
-10.71
-12.13
-13.84
-15.8
-17.97
-20.29
-22.71
-25.18
-27.67
-30.18
-32.73
-35.37
-38.14
-40.99
-43.65
-45.63
-46.26
-44.97
-41.44
-35.79
-28.58
-20.68
-12.93
-5.97
-0.06
4.81
8.83
12.25
15.23
17.89
20.25
22.33
24.09
25.49
26.47
26.98
27.04
26.66
25.94
25.01
24.02
23.13
22.46
22.1
22.03
22.13
22.22
22.11
21.69
20.99
20.19
19.5
19.06
18.88
18.75
18.39
17.58
16.27
14.58
12.75
10.97
9.36
7.96
6.76
5.72
4.84
4.08
3.41
2.79
2.23
1.79
1.51
1.44
1.5
1.56
1.45
1.09
0.44
-0.38
-1.23
-1.95
-2.42
-2.63
-2.72
-2.9
-3.39
-4.29
-5.58
-7.06
-8.54
-9.88
-11.11
-12.36
-13.77
-15.42
-17.3
-19.28
-21.25
-23.11
-24.81
-26.37
-27.86
-29.43
-31.28
-33.58
-36.37
-39.51
-42.63
-45.15
-46.44
-45.96
-43.41
-38.82
-32.6
-25.42
-18.07
-11.24
-5.37
-0.58
3.29
6.53
9.43
12.15
14.71
17.04
18.99
20.45
21.41
21.91
22.1
22.12
22.08
22.06
22.08
22.08
21.96
21.48
20.44
18.69
16.27
13.5
10.93
9.13
8.51
9.11
10.6
12.47
14.18
15.36
15.9
15.81
15.21
14.19
12.88
11.38
9.86
8.52
7.47
6.71
6.1
5.43
4.5
3.26
1.79
0.34
-0.83
-1.57
-1.85
-1.78
-1.6
-1.56
-1.88
-2.67
-3.96
-5.74
-7.94
-10.5
-13.29
-16.03
-18.37
-19.9
-20.39
-19.85
-18.58
-17.03
-15.64
-14.69
-14.31
-14.55
-15.44
-17.0
-19.08
-21.26
-22.86
-23.18
-21.71
-18.41
-13.76
-8.57
-3.73
0.06
2.44
3.42
3.31
2.64
1.95
1.73
2.27
3.63
5.64
8.03
10.47
12.68
14.42
15.51
15.89
15.61
14.86
13.96
13.26
13.02
13.31
13.98
14.7
15.17
15.19
14.79
14.21
13.81
13.88
14.54
15.7
17.12
18.51
19.63
20.31
20.46
20.03
18.97
17.3
15.05
12.4
9.58
6.89
4.6
2.88
1.73
1.03
0.55
0.02
-0.74
-1.8
-3.13
-4.55
-5.95
-7.26
-8.54
-9.9
-11.51
-13.46
-15.79
-18.43
-21.26
-24.11
-26.8
-29.16
-31.13
-32.78
-34.38
-36.31
-38.89
-42.21
-45.97
-49.49
-51.88
-52.33
-50.42
-46.21
-40.15
-32.98
-25.39
-17.95
-11.02
-4.8
0.57
5.02
8.6
11.53
14.11
16.68
19.42
22.24
24.8
26.71
27.68
27.72
27.09
26.17
25.32
24.73
24.47
24.49
24.71
25.12
25.61
26.07
26.29
26.11
25.45
24.37
23.07
21.77
20.65
19.76
19.06
18.4
17.69
16.9
16.06
15.23
14.43
13.64
12.72
11.61
10.26
8.75
7.25
5.91
4.86
4.11
3.56
2.98
2.22
1.16
-0.13
-1.46
-2.6
-3.41
-3.87
-4.09
-4.32
-4.75
-5.52
-6.62
-7.89
-9.15
-10.2
-10.97
-11.56
-12.2
-13.15
-14.64
-16.7
-19.19
-21.82
-24.35
-26.62
-28.67
-30.71
-33.02
-35.83
-39.27
-43.21
-47.28
-50.83
-53.11
-53.41
-51.31
-46.79
-40.33
-32.72
-24.86
-17.48
-11.01
-5.57
-0.98
3.04
6.71
10.18
13.45
16.47
19.16
21.48
23.39
24.93
26.1
26.95
27.51
27.78
27.81
27.65
27.38
27.13
26.98
26.94
26.93
26.79
26.34
25.51
24.37
23.14
22.07
21.31
20.84
20.48
20.02
19.31
18.38
17.36
16.44
15.69
15.04
14.34
13.46
12.37
11.16
9.99
8.99
8.19
7.56
7.03
6.5
5.94
5.32
4.64
3.85
2.95
1.9
0.75
-0.42
-1.52
-2.46
-3.21
-3.84
-4.45
-5.17
-6.06
-7.07
-8.1
-9.05
-9.92
-10.8
-11.85
-13.19
-14.89
-16.87
-19.0
-21.12
-23.11
-24.9
-26.52
-28.11
-29.87
-32.05
-34.81
-38.12
-41.69
-44.99
-47.33
-48.05
-46.73
-43.28
-37.98
-31.41
-24.31
-17.34
-10.99
-5.44
-0.65
3.56
7.35
10.84
14.05
16.95
19.5
21.64
23.29
24.34
24.78
24.73
24.49
24.48
25.09
26.52
28.65
31.11
33.38
34.94
35.49
34.92
33.35
30.99
28.12
25.02
21.93
19.09
16.71
14.93
13.81
13.23
12.98
12.76
12.34
11.62
10.63
9.52
8.44
7.46
6.58
5.74
4.9
4.05
3.24
2.5
1.85
1.25
0.66
0.04
-0.6
-1.21
-1.75
-2.22
-2.67
-3.21
-3.94
-4.88
-5.96
-7.05
-8.0
-8.8
-9.54
-10.49
-11.9
-13.91
-16.5
-19.44
-22.45
-25.25
-27.69
-29.72
-31.45
-33.03
-34.65
-36.53
-38.83
-41.56
-44.51
-47.21
-48.97
-49.07
-47.01
-42.71
-36.55
-29.31
-21.86
-14.92
-8.9
-3.82
0.49
4.25
7.65
10.74
13.59
16.26
18.79
21.24
23.57
25.75
27.74
29.55
31.26
32.95
34.7
36.46
38.14
39.56
40.51
40.82
40.38
39.12
37.08
34.37
31.17
27.74
24.33
21.15
18.34
15.93
13.91
12.2
10.72
9.4
8.14
6.87
5.54
4.12
2.66
1.26
0.03
-0.95
-1.65
-2.1
-2.36
-2.47
-2.46
-2.39
-2.38
-2.52
-2.9
-3.51
-4.29
-5.09
-5.8
-6.34
-6.72
-7.04
-7.39
-7.88
-8.56
-9.44
-10.48
-11.63
-12.86
-14.15
-15.51
-16.99
-18.63
-20.51
-22.64
-24.95
-27.29
-29.41
-31.1
-32.29
-33.14
-34.06
-35.53
-37.88
-41.03
-44.38
-46.98
-47.76
-45.98
-41.4
-34.46
-26.1
-17.45
-9.5
-2.87
2.39
6.61
10.34
14.04
17.88
21.7
25.11
27.77
29.56
30.58
31.15
31.57
32.0
32.48
32.99
33.52
34.02
34.29
33.85
32.06
28.47
23.19
17.17
11.84
8.56
7.84
9.03
10.61
11.0
9.36
6.02
2.18
-0.84
-2.3
-2.36
-1.72
-1.12
-0.86
-0.83
-0.76
-0.62
-0.68
-1.39
-2.89
-4.87
-6.47
-6.77
-5.22
-2.04
1.85
5.21
7.0
6.88
5.27
3.11
1.34
0.43
0.25
0.21
-0.26
-1.4
-2.99
-4.59
-5.81
-6.61
-7.21
-8.0
-9.27
-11.12
-13.42
-16.0
-18.72
-21.46
-24.11
-26.58
-28.75
-30.56
-32.08
-33.46
-34.91
-36.59
-38.5
-40.47
-42.11
-42.95
-42.49
-40.44
-36.74
-31.65
-25.63
-19.23
-12.96
-7.2
-2.19
2.04
5.58
8.68
11.61
14.56
17.53
20.31
22.62
24.18
24.93
25.02
24.7
24.22
23.73
23.28
22.91
22.66
22.64
22.88
23.26
23.55
23.5
22.96
21.97
20.71
19.46
18.38
17.56
16.93
16.44
16.04
15.77
15.64
15.62
15.54
15.21
14.48
13.3
11.82
10.27
8.89
7.78
6.91
6.16
5.4
4.61
3.83
3.16
2.69
2.39
2.16
1.82
1.2
0.15
-1.35
-3.22
-5.22
-7.04
-8.41
-9.21
-9.58
-9.85
-10.43
-11.64
-13.56
-16.02
-18.68
-21.15
-23.21
-24.81
-26.13
-27.49
-29.18
-31.42
-34.22
-37.35
-40.33
-42.49
-43.16
-41.87
-38.45
-33.17
-26.63
-19.56
-12.62
-6.24
-0.62
4.24
8.41
11.96
14.93
17.38
19.36
20.95
22.17
23.03
23.49
23.53
23.18
22.53
21.7
20.86
20.12
19.57
19.3
19.32
19.67
20.26
21.01
21.73
22.22
22.37
22.13
21.65
21.08
20.54
19.99
19.28
18.22
16.77
15.09
13.47
12.22
11.49
11.18
10.99
10.67
10.04
9.18
8.25
7.43
6.76
6.14
5.41
4.43
3.22
1.91
0.69
-0.3
-1.1
-1.8
-2.58
-3.5
-4.6
-5.8
-7.04
-8.26
-9.42
-10.48
-11.41
-12.22
-13.05
-14.15
-15.8
-18.2
-21.24
-24.59
-27.73
-30.24
-31.95
-33.08
-34.13
-35.73
-38.32
-41.99
-46.32
-50.47
-53.39
-54.14
-52.21
-47.62
-40.96
-33.1
-24.94
-17.17
-10.14
-4.01
1.26
5.72
9.53
12.87
15.94
18.92
21.82
24.53
26.78
28.36
29.17
29.27
28.81
27.97
26.94
25.87
24.99
24.54
24.67
25.36
26.34
27.24
27.74
27.71
27.28
26.69
26.16
25.75
25.31
24.65
23.61
22.19
20.54
18.84
17.29
15.92
14.69
13.47
12.13
10.64
9.08
7.58
6.29
5.26
4.43
3.7
3.02
2.44
2.09
2.04
2.27
2.59
2.78
2.67
2.27
1.66
1.0
0.31
-0.49
-1.54
-2.93
-4.58
-6.24
-7.6
-8.48
-8.87
-8.96
-9.07
-9.46
-10.28
-11.52
-13.11
-14.92
-16.85
-18.8
-20.65
-22.35
-23.93
-25.59
-27.63
-30.29
-33.59
-37.16
-40.36
-42.42
-42.73
-41.01
-37.28
-31.85
-25.18
-17.84
-10.46
-3.66
2.07
6.47
9.58
11.67
13.16
14.36
15.45
16.45
17.29
17.92
18.33
18.55
18.59
18.49
18.26
18.0
17.77
17.66
17.7
17.82
17.92
17.85
17.51
16.89
16.07
15.15
14.25
13.39
12.56
11.75
10.94
10.2
9.57
9.1
8.7
8.29
7.73
7.0
6.19
5.44
4.91
4.62
4.51
4.45
4.31
4.04
3.65
3.22
2.85
2.58
2.38
2.16
1.82
1.32
0.64
-0.14
-0.92
-1.66
-2.34
-3.04
-3.83
-4.73
-5.7
-6.66
-7.55
-8.44
-9.44
-10.69
-12.27
-14.11
-16.05
-17.9
-19.51
-20.89
-22.19
-23.63
-25.38
-27.48
-29.77
-31.91
-33.46
-33.99
-33.15
-30.73
-26.77
-21.5
-15.38
-8.95
-2.74
2.85
7.57
11.36
14.2
16.14
17.21
17.54
17.3
16.76
16.19
15.78
15.53
15.38
15.22
15.03
14.92
15.0
15.32
15.81
16.31
16.72
16.99
17.22
17.55
18.07
18.76
19.51
20.17
20.64
20.92
21.05
21.13
21.27
21.58
22.13
22.94
23.93
24.96
25.87
26.59
27.23
28.04
29.38
31.56
34.81
39.12
44.26
49.7
54.6
57.88
58.49
55.71
49.55
40.76
30.68
20.81
12.25
5.52
0.5
-3.2
-5.97
-7.94
-9.07
-9.32
-8.88
-8.15
-7.65
-7.72
-8.37
-9.26
-9.94
-10.16
-10.16
-10.67
-12.69
-16.99
-23.79
-32.57
-42.31
-51.81
-60.15
-66.89
-72.0
-75.69
-78.04
-78.96
-78.14
-75.27
-70.29
-63.45
-55.35
-46.75
-38.36
-30.65
-23.87
-18.02
-13.08
-9.02
-5.87
-3.73
-2.59
-2.39
-2.95
-4.04
-5.43
-6.9
-8.25
-9.27
-9.82
-9.75
-8.99
-7.48
-5.32
-2.63
0.38
3.49
6.52
9.36
11.96
14.23
16.03
17.16
17.39
16.6
14.86
12.46
9.79
7.26
5.11
3.42
2.07
0.9
-0.21
-1.33
-2.41
-3.38
-4.17
-4.78
-5.24
-5.66
-6.15
-6.89
-7.97
-9.44
-11.25
-13.32
-15.45
-17.48
-19.3
-20.88
-22.33
-23.87
-25.69
-27.91
-30.4
-32.77
-34.49
-34.96
-33.65
-30.23
-24.54
-16.66
-6.84
4.47
16.67
28.97
40.48
50.29
57.61
61.91
63.01
61.13
56.92
51.36
45.7
41.2
38.76
38.66
40.33
42.59
44.06
43.72
41.24
36.97
31.52
25.29
18.19
9.78
-0.33
-12.07
-24.71
-37.06
-47.92
-56.47
-62.49
-66.2
-67.98
-68.12
-66.7
-63.75
-59.43
-54.13
-48.47
-43.08
-38.38
-34.38
-30.73
-26.82
-21.97
-15.71
-7.85
1.36
11.21
20.57
28.13
32.73
33.73
31.26
26.24
20.02
14.05
9.36
6.37
4.83
4.03
3.18
1.71
-0.6
-3.62
-7.13
-11.01
-15.35
-20.4
-26.37
-33.25
-40.56
-47.53
-53.21
-56.76
-57.74
-56.21
-52.74
-48.18
-43.35
-38.72
-34.26
-29.52
-23.94
-17.29
-9.78
-1.92
5.82
13.31
20.88
28.9
37.38
45.69
52.71
57.3
58.87
57.64
54.52
50.63
46.76
43.21
39.84
36.4
32.91
29.66
27.11
25.53
24.89
24.75
24.52
23.74
22.3
20.47
18.67
17.24
16.22
15.36
14.27
12.7
10.66
8.42
6.36
4.8
3.86
3.44
3.34
3.3
3.14
2.75
2.11
1.27
0.3
-0.72
-1.78
-2.89
-4.08
-5.36
-6.65
-7.85
-8.87
-9.72
-10.5
-11.39
-12.58
-14.19
-16.28
-18.77
-21.53
-24.31
-26.88
-29.07
-30.86
-32.43
-34.06
-36.09
-38.75
-42.06
-45.77
-49.39
-52.3
-53.77
-53.23
-50.38
-45.3
-38.47
-30.61
-22.51
-14.78
-7.8
-1.69
3.53
7.96
11.7
14.97
17.99
20.95
23.87
26.57
28.7
29.97
30.26
29.72
28.77
27.84
27.26
27.13
27.4
27.91
28.52
29.15
29.7
30.08
30.13
29.74
28.85
27.54
26.04
24.61
23.51
22.81
22.42
22.11
21.6
20.73
19.51
18.06
16.58
15.17
13.89
12.68
11.55
10.57
9.88
9.54
9.49
9.53
9.37
8.86
7.97
6.85
5.74
4.81
4.09
3.55
3.05
2.45
1.64
0.54
-0.89
-2.61
-4.49
-6.42
-8.34
-10.24
-12.26
-14.49
-16.99
-19.7
-22.45
-25.05
-27.39
-29.46
-31.3
-33.07
-34.93
-37.13
-39.89
-43.27
-47.06
-50.67
-53.23
-53.86
-51.93
-47.36
-40.59
-32.44
-23.77
-15.32
-7.54
-0.62
5.38
10.5
14.84
18.55
21.78
24.59
26.89
28.43
28.96
28.36
26.77
24.59
22.39
20.7
19.85
19.92
20.75
22.07
23.53
24.84
25.76
26.17
26.04
25.47
24.63
23.74
22.95
22.36
21.96
21.69
21.49
21.27
20.92
20.37
19.55
18.44
17.09
15.63
14.24
13.1
12.31
11.85
11.63
11.49
11.27
10.86
10.2
9.35
8.38
7.36
6.36
5.43
4.56
3.76
2.98
2.15
1.2
0.09
-1.19
-2.59
-4.07
-5.56
-7.01
-8.36
-9.59
-10.7
-11.69
-12.66
-13.73
-15.02
-16.64
-18.58
-20.73
-22.93
-25.0
-26.88
-28.62
-30.4
-32.43
-34.9
-37.8
-40.9
-43.74
-45.7
-46.17
-44.7
-41.14
-35.64
-28.69
-20.95
-13.14
-5.88
0.39
5.5
9.48
12.57
15.0
16.96
18.52
19.72
20.55
21.06
21.37
21.59
21.8
21.97
22.07
22.09
22.09
22.16
22.37
22.73
23.12
23.4
23.4
23.07
22.38
21.4
20.15
18.68
17.08
15.48
14.04
12.9
12.08
11.55
11.13
10.7
10.18
9.55
8.86
8.16
7.5
6.9
6.41
6.05
5.84
5.71
5.54
5.19
4.58
3.75
2.83
2.0
1.39
0.98
0.66
0.2
-0.54
-1.61
-2.92
-4.34
-5.71
-6.99
-8.2
-9.44
-10.79
-12.26
-13.83
-15.48
-17.21
-19.07
-21.09
-23.22
-25.28
-27.12
-28.65
-30.0
-31.46
-33.4
-36.05
-39.32
-42.71
-45.46
-46.73
-45.89
-42.74
-37.53
-30.86
-23.48
-16.03
-8.97
-2.59
3.03
7.81
11.75
14.89
17.3
19.09
20.39
21.24
21.68
21.75
21.53
21.12
20.63
20.18
19.84
19.69
19.81
20.25
20.97
21.84
22.65
23.18
23.3
23.02
22.43
21.67
20.82
19.9
18.91
17.85
16.75
15.63
14.52
13.4
12.24
11.05
9.84
8.69
7.62
6.67
5.79
4.94
4.08
3.22
2.37
1.6
0.97
0.49
0.15
-0.13
-0.5
-1.12
-2.08
-3.38
-4.9
-6.45
-7.86
-9.07
-10.17
-11.36
-12.82
-14.6
-16.63
-18.74
-20.76
-22.62
-24.38
-26.26
-28.44
-31.09
-34.25
-37.74
-41.17
-44.01
-45.63
-45.48
-43.25
-38.96
-32.98
-25.9
-18.38
-11.03
-4.29
1.61
6.55
10.54
13.67
16.04
17.77
19.0
19.82
20.28
20.46
20.41
20.2
19.86
19.45
19.03
18.74
18.72
19.09
19.87
20.89
21.85
22.46
22.57
22.21
21.58
20.93
20.35
19.86
19.31
18.6
17.69
16.61
15.45
14.26
13.1
12.03
11.08
10.29
9.67
9.16
8.7
8.19
7.56
6.78
5.9
5.0
4.2
3.59
3.2
3.0
2.89
2.77
2.54
2.21
1.84
1.51
1.24
0.95
0.54
-0.13
-1.08
-2.23
-3.39
-4.37
-5.06
-5.48
-5.74
-6.02
-6.52
-7.39
-8.68
-10.35
-12.11
-13.53
-13.96
-12.81
-9.69
-4.64
1.82
8.83
15.47
21.05
25.27
28.17
30.0
31.0
31.27
30.8
29.52
27.49
24.89
21.96
18.88
15.73
12.39
8.76
4.85
0.96
-2.36
-4.46
-4.83
-3.24
0.1
4.65
9.7
14.45
18.19
20.26
20.13
17.42
12.09
4.53
-4.41
-13.55
-21.62
-27.6
-30.89
-31.45
-29.66
-26.13
-21.54
-16.54
-11.64
-7.26
-3.72
-1.24
0.03
0.1
-0.96
-2.99
-5.83
-9.27
-13.06
-16.9
-20.45
-23.35
-25.3
-26.13
-25.88
-24.84
-23.41
-22.09
-21.22
-20.93
-21.1
-21.56
-22.22
-23.19
-24.73
-27.04
-30.08
-33.46
-36.58
-38.94
-40.41
-41.36
-42.61
-45.13
-49.67
-56.53
-65.41
-75.41
-85.22
-93.37
-98.47
-99.56
-96.23
-88.78
-78.12
-65.56
-52.51
-40.26
-29.74
-21.41
-15.28
-10.99
-7.99
-5.72
-3.79
-2.06
-0.58
0.46
1.0
1.11
1.02
0.92
0.82
0.53
-0.25
-1.63
-3.33
-4.73
-5.01
-3.49
0.09
5.6
12.48
20.06
27.62
34.53
40.32
44.72
47.7
49.52
50.59
51.32
51.93
52.35
52.3
51.45
49.6
46.87
43.64
40.38
37.53
35.32
33.78
32.82
32.25
31.89
31.58
31.16
30.5
29.45
27.95
26.08
24.0
21.91
19.92
18.07
16.24
14.31
12.27
10.25
8.48
7.2
6.46
6.14
5.85
5.13
3.63
1.24
-1.88
-5.39
-8.91
-12.23
-15.36
-18.6
-22.42
-27.19
-32.98
-39.36
-45.48
-50.25
-52.69
-52.24
-48.9
-43.21
-36.03
-28.25
-20.65
-13.7
-7.61
-2.37
2.15
6.15
9.84
13.38
16.84
20.24
23.53
26.66
29.57
32.3
34.92
37.5
40.11
42.76
45.35
47.79
49.92
51.61
52.75
53.31
53.33
52.99
52.6
52.52
53.04
54.3
56.16
58.22
59.87
60.49
59.5
56.61
51.74
45.09
37.03
27.99
18.4
8.6
-1.04
-10.14
-18.21
-24.82
-29.64
-32.64
-34.11
-34.58
-34.66
-34.8
-35.19
-35.7
-36.04
-35.93
-35.24
-34.17
-33.18
-32.96
-34.08
-36.72
-40.26
-43.2
-43.4
-38.88
-28.67
-13.49
4.36
21.59
35.04
42.6
43.63
38.83
29.67
17.96
5.46
-6.27
-16.05
-23.32
-28.23
-31.55
-34.23
-36.86
-39.3
-40.85
-40.76
-38.81
-35.58
-32.17
-29.64
-28.4
-28.07
-27.67
-26.27
-23.41
-19.28
-14.47
-9.61
-5.04
-0.81
3.21
7.04
10.49
13.26
15.12
16.04
16.23
16.08
16.03
16.41
17.39
18.84
20.38
21.51
21.84
21.26
20.05
18.78
17.98
17.86
18.19
18.43
18.01
16.72
14.78
12.74
11.19
10.44
10.39
10.64
10.75
10.43
9.68
8.72
7.84
7.28
7.11
7.2
7.32
7.22
6.68
5.65
4.22
2.58
0.89
-0.81
-2.6
-4.59
-6.77
-8.99
-11.02
-12.74
-14.24
-15.77
-17.55
-19.61
-21.69
-23.4
-24.46
-24.97
-25.34
-26.19
-27.99
-30.84
-34.35
-37.83
-40.42
-41.34
-40.09
-36.53
-30.88
-23.7
-15.77
-7.87
-0.65
5.49
10.47
14.44
17.67
20.41
22.78
24.82
26.45
27.62
28.34
28.7
28.88
29.07
29.39
29.87
30.44
30.97
31.34
31.47
31.36
31.02
30.45
29.59
28.35
26.69
24.72
22.72
21.08
20.07
19.74
19.78
19.67
18.81
16.87
13.88
10.2
6.43
3.1
0.51
-1.28
-2.44
-3.23
-3.82
-4.35
-4.87
-5.42
-6.06
-6.79
-7.59
-8.33
-8.83
-8.93
-8.59
-7.9
-7.09
-6.44
-6.25
-6.73
-8.02
-10.1
-12.82
-15.86
-18.85
-21.47
-23.56
-25.23
-26.79
-28.68
-31.27
-34.72
-38.82
-43.05
-46.63
-48.73
-48.65
-46.07
-41.08
-34.19
-26.18
-17.9
-10.07
-3.21
2.47
6.97
10.5
13.35
15.82
18.19
20.59
23.01
25.27
27.12
28.27
28.58
28.11
27.15
26.11
25.44
25.38
25.99
27.06
28.3
29.43
30.29
30.87
31.2
31.34
31.21
30.68
29.54
27.65
24.99
21.78
18.42
15.37
13.0
11.43
10.44
9.57
8.33
6.49
4.2
1.94
0.34
-0.11
0.67
2.3
3.92
4.45
2.86
-1.33
-7.58
-14.15
-18.43
-17.69
-10.31
3.43
21.15
39.05
53.22
60.88
61.03
54.23
42.03
26.32
9.06
-7.74
-22.05
-32.2
-37.4
-38.2
-36.34
-34.12
-33.44
-35.16
-39.11
-44.56
-50.91
-57.97
-65.82
-74.27
-82.53
-89.27
-93.08
-93.15
-89.52
-82.97
-74.59
-65.3
-55.69
-46.03
-36.55
-27.6
-19.6
-12.89
-7.53
-3.25
0.44
3.99
7.66
11.44
15.14
18.48
21.23
23.27
24.62
25.4
25.8
26.05
26.33
26.77
27.45
28.27
29.12
29.86
30.4
30.78
31.07
31.3
31.41
31.25
30.72
29.83
28.77
27.77
26.98
26.36
25.66
24.61
23.05
21.07
18.98
17.13
15.74
14.85
14.31
13.95
13.67
13.42
13.22
13.05
12.8
12.33
11.45
10.07
8.18
5.85
3.25
0.52
-2.22
-4.89
-7.45
-9.89
-12.14
-14.17
-15.89
-17.31
-18.51
-19.71
-21.22
-23.32
-26.13
-29.52
-33.11
-36.47
-39.31
-41.62
-43.64
-45.64
-47.7
-49.5
-50.4
-49.67
-46.8
-41.74
-34.91
-26.99
-18.76
-10.82
-3.55
2.86
8.33
12.85
16.46
19.27
21.44
23.13
24.5
25.59
26.39
26.83
26.91
26.66
26.15
25.53
24.89
24.32
23.86
23.52
23.26
23.04
22.78
22.39
21.83
21.08
20.21
19.32
18.5
17.78
17.1
16.31
15.27
13.93
12.39
10.89
9.7
9.0
8.81
8.93
9.13
9.2
9.04
8.66
8.16
7.63
7.13
6.7
6.33
5.95
5.42
4.57
3.25
1.47
-0.55
-2.44
-3.82
-4.57
-4.84
-5.07
-5.73
-7.09
-9.07
-11.29
-13.33
-14.96
-16.23
-17.47
-19.0
-21.01
-23.42
-25.97
-28.35
-30.31
-31.69
-32.42
-32.46
-31.81
-30.49
-28.44
-25.47
-21.12
-14.76
-5.77
6.08
20.21
35.2
49.03
59.65
65.66
66.67
63.23
56.48
47.64
37.73
27.6
18.14
10.36
5.27
3.43
4.64
7.89
11.78
15.03
16.92
17.36
16.6
14.86
12.25
8.92
5.2
1.72
-0.87
-2.21
-2.47
-2.29
-2.48
-3.47
-5.18
-7.02
-8.28
-8.48
-7.6
-6.07
-4.54
-3.61
-3.6
-4.55
-6.25
-8.44
-10.94
-13.64
-16.52
-19.43
-22.11
-24.13
-25.15
-25.12
-24.3
-23.3
-22.79
-23.22
-24.68
-26.8
-28.99
-30.61
-31.23
-30.8
-29.63
-28.28
-27.37
-27.36
-28.4
-30.35
-32.83
-35.4
-37.71
-39.42
-40.28
-39.97
-38.22
-34.83
-29.82
-23.52
-16.54
-9.61
-3.38
1.77
5.82
9.09
12.12
15.44
19.31
23.63
27.86
31.27
33.16
33.22
31.62
29.0
26.22
24.02
22.79
22.49
22.78
23.22
23.53
23.7
23.92
24.44
25.32
26.39
27.24
27.45
26.68
24.88
22.22
19.13
16.21
14.23
14.1
16.64
22.28
30.87
41.45
52.53
62.42
69.71
73.56
73.73
70.45
64.18
55.52
45.22
34.18
23.42
13.87
6.07
0.02
-4.85
-9.39
-14.39
-20.24
-26.72
-33.05
-38.22
-41.35
-42.12
-41.04
-39.41
-38.93
-41.14
-46.85
-55.7
-66.23
-76.09
-82.71
-84.0
-79.12
-68.83
-55.45
-42.2
-32.14
-27.16
-27.31
-30.96
-35.55
-38.54
-38.25
-34.05
-26.3
-16.0
-4.64
5.94
13.76
17.39
16.66
13.21
10.2
11.2
18.78
33.32
52.86
73.88
92.67
106.54
114.39
116.46
113.75
107.41
98.43
87.7
76.18
64.9
54.88
46.89
41.19
37.53
35.2
33.25
30.83
27.43
23.09
18.28
13.72
10.02
7.44
5.83
4.72
3.44
1.19
-2.94
-9.84
-20.0
-33.13
-47.87
-62.0
-73.17
-79.9
-82.15
-81.41
-79.87
-79.34
-80.34
-81.88
-82.05
-79.09
-72.48
-63.35
-54.39
-48.78
-49.05
-55.95
-67.89
-81.49
-92.66
-98.17
-96.72
-89.1
-77.48
-64.22
-50.98
-38.4
-26.48
-15.19
-4.85
3.91
10.48
14.64
16.64
17.01
16.31
14.97
13.26
11.45
9.86
8.88
8.8
9.71
11.4
13.4
15.16
16.25
16.56
16.49
16.84
18.58
22.38
28.26
35.39
42.28
47.23
48.81
46.28
39.76
30.16
19.0
8.06
-0.91
-6.5
-7.9
-4.97
1.77
11.37
22.65
34.4
45.41
54.54
60.75
63.23
61.61
56.11
47.59
37.31
26.64
16.77
8.52
2.28
-1.95
-4.39
-5.39
-5.29
-4.39
-2.96
-1.16
0.87
2.96
4.89
6.33
6.94
6.47
4.85
2.34
-0.52
-3.15
-5.17
-6.55
-7.68
-9.02
-10.84
-12.98
-14.95
-16.26
-16.76
-16.8
-17.01
-17.92
-19.63
-21.78
-23.88
-25.78
-27.84
-30.82
-35.37
-41.6
-48.88
-56.12
-62.26
-66.71
-69.48
-70.92
-71.34
-70.69
-68.62
-64.66
-58.62
-50.72
-41.6
-32.11
-23.0
-14.68
-7.16
-0.14
6.81
13.98
21.37
28.68
35.42
41.13
45.54
48.63
50.59
51.61
51.8
51.13
49.51
46.94
43.62
39.89
36.19
32.83
29.94
27.4
24.97
22.44
19.75
17.07
14.67
12.79
11.43
10.31
8.95
6.86
3.81
-0.09
-4.39
-8.5
-11.93
-14.38
-15.77
-16.22
-15.87
-14.9
-13.54
-12.06
-10.79
-9.99
-9.77
-10.08
-10.7
-11.36
-11.83
-11.93
-11.55
-10.68
-9.4
-7.96
-6.72
-6.05
-6.1
-6.71
-7.51
-8.01
-8.01
-7.58
-7.15
-7.18
-8.01
-9.68
-12.01
-14.71
-17.5
-20.19
-22.66
-24.96
-27.22
-29.75
-32.85
-36.66
-40.92
-44.91
-47.62
-48.12
-45.89
-41.03
-34.21
-26.4
-18.51
-11.22
-4.89
0.38
4.68
8.22
11.27
14.07
16.79
19.44
21.89
23.97
25.55
26.66
27.44
28.09
28.76
29.46
30.15
30.73
31.19
31.53
31.77
31.88
31.79
31.38
30.58
29.45
28.14
26.83
25.67
24.69
23.82
22.91
21.83
20.51
18.97
17.29
15.59
13.97
12.48
11.15
9.92
8.75
7.65
6.65
5.84
5.31
5.0
4.78
4.43
3.77
2.78
1.6
0.46
-0.44
-1.02
-1.35
-1.59
-1.89
-2.36
-3.03
-3.95
-5.12
-6.5
-7.97
-9.4
-10.62
-11.6
-12.47
-13.45
-14.79
-16.58
-18.79
-21.18
-23.55
-25.74
-27.8
-29.88
-32.21
-34.94
-38.05
-41.31
-44.28
-46.42
-47.18
-46.14
-43.1
-38.13
-31.61
-24.1
-16.31
-8.91
-2.34
3.19
7.73
11.46
14.63
17.35
19.68
21.62
23.17
24.36
25.23
25.79
26.04
26.02
25.82
25.6
25.54
25.75
26.24
26.92
27.63
28.25
28.66
28.81
28.62
28.09
27.26
26.23
25.18
24.24
23.43
22.66
21.76
20.59
19.12
17.47
15.87
14.59
13.79
13.47
13.48
13.56
13.46
13.08
12.42
11.57
10.6
9.47
8.1
6.44
4.54
2.62
0.94
-0.28
-1.03
-1.47
-1.87
-2.45
-3.27
-4.23
-5.1
-5.74
-6.13
-6.44
-6.94
-7.89
-9.41
-11.46
-13.85
-16.36
-18.8
-21.04
-23.04
-24.8
-26.34
-27.75
-29.19
-30.87
-32.89
-35.12
-37.14
-38.28
-37.85
-35.4
-30.93
-24.86
-17.9
-10.81
-4.19
1.61
6.52
10.69
14.29
17.46
20.19
22.35
23.77
24.32
24.05
23.16
21.95
20.72
19.7
19.02
18.71
18.76
19.15
19.76
20.4
20.84
20.88
20.42
19.57
18.59
17.81
17.46
17.47
17.57
17.36
16.54
15.06
13.17
11.29
9.71
8.51
7.5
6.4
5.04
3.48
1.96
0.74
-0.07
-0.57
-0.97
-1.5
-2.27
-3.25
-4.36
-5.54
-6.72
-7.8
-8.52
-8.48
-7.24
-4.62
-0.88
3.24
6.81
9.05
9.68
8.99
7.64
6.2
4.84
3.29
1.11
-1.96
-5.73
-9.62
-12.99
-15.52
-17.4
-19.26
-21.85
-25.66
-30.65
-36.22
-41.38
-45.09
-46.54
-45.42
-41.93
-36.72
-30.62
-24.48
-18.89
-14.11
-10.13
-6.78
-3.87
-1.29
0.95
2.85
4.41
5.68
6.72
7.57
8.2
8.61
8.85
9.1
9.68
10.85
12.79
15.39
18.37
21.34
24.0
26.25
28.19
30.06
32.09
34.38
36.88
39.38
41.59
43.23
44.08
44.01
42.97
41.02
38.36
35.33
32.35
29.76
27.75
26.18
24.74
23.03
20.78
17.98
14.84
11.66
8.69
6.04
3.66
1.47
-0.63
-2.66
-4.63
-6.54
-8.38
-10.18
-11.91
-13.56
-15.13
-16.64
-18.14
-19.62
-21.08
-22.51
-23.91
-25.41
-27.14
-29.23
-31.67
-34.31
-36.83
-38.94
-40.47
-41.43
-42.06
-42.69
-43.68
-45.21
-47.26
-49.52
-51.47
-52.48
-51.93
-49.45
-45.02
-39.01
-32.03
-24.79
-17.87
-11.6
-6.08
-1.18
3.22
7.2
10.75
13.76
16.14
17.84
18.9
19.43
19.53
19.26
18.73
18.04
17.35
16.85
16.65
16.79
17.15
17.58
17.93
18.12
18.19
18.24
18.29
18.31
18.19
17.84
17.26
16.51
15.72
14.98
14.32
13.71
13.08
12.45
11.82
11.26
10.74
10.21
9.62
8.99
8.44
8.11
8.07
8.24
8.38
8.19
7.45
6.15
4.44
2.62
0.98
-0.34
-1.3
-2.02
-2.66
-3.42
-4.44
-5.79
-7.43
-9.21
-10.94
-12.41
-13.56
-14.44
-15.25
-16.2
-17.46
-19.09
-21.01
-23.07
-25.16
-27.19
-29.17
-31.17
-33.32
-35.73
-38.35
-41.0
-43.25
-44.53
-44.26
-42.04
-37.75
-31.65
-24.3
-16.41
-8.68
-1.69
4.23
8.95
12.58
15.28
17.23
18.58
19.38
19.66
19.53
19.12
18.64
18.26
18.08
18.12
18.31
18.6
18.95
19.37
19.87
20.43
21.01
21.56
21.99
22.25
22.28
22.07
21.65
21.15
20.68
20.37
20.2
20.02
19.61
18.78
17.52
15.99
14.46
13.19
12.28
11.64
11.1
10.48
9.71
8.8
7.82
6.86
5.97
5.19
4.56
4.11
3.83
3.64
3.39
2.9
2.06
0.87
-0.59
-2.17
-3.74
-5.24
-6.7
-8.2
-9.84
-11.7
-13.79
-16.04
-18.31
-20.44
-22.31
-23.87
-25.23
-26.6
-28.23
-30.37
-33.1
-36.34
-39.75
-42.81
-44.89
-45.41
-44.03
-40.75
-35.97
-30.32
-24.49
-18.98
-14.02
-9.55
-5.39
-1.37
2.55
6.31
9.79
12.92
15.66
18.01
19.93
21.32
22.08
22.15
21.63
20.74
19.8
19.1
18.82
19.03
19.61
20.44
21.34
22.19
22.91
23.46
23.79
23.88
23.76
23.47
23.03
22.48
21.82
20.99
19.95
18.65
17.09
15.34
13.5
11.71
10.09
8.69
7.51
6.43
5.34
4.14
2.83
1.45
0.12
-1.08
-2.11
-2.92
-3.46
-3.67
-3.55
-3.17
-2.73
-2.47
-2.59
-3.17
-4.17
-5.48
-7.05
-8.87
-10.95
-13.24
-15.66
-18.06
-20.38
-22.57
-24.71
-26.87
-29.11
-31.39
-33.73
-36.11
-38.6
-41.3
-44.21
-47.14
-49.71
-51.33
-51.4
-49.47
-45.34
-39.17
-31.39
-22.58
-13.34
-4.17
4.55
12.58
19.73
25.85
30.87
34.73
37.45
39.13
39.92
40.01
39.58
38.76
37.63
36.24
34.63
32.86
31.03
29.27
27.68
26.32
25.18
24.2
23.34
22.54
21.74
20.86
19.8
18.45
16.77
14.86
13.0
11.59
11.07
11.7
13.43
15.83
18.27
20.07
20.76
20.17
18.44
15.91
12.96
9.96
7.15
4.69
2.63
0.92
-0.57
-1.95
-3.31
-4.58
-5.56
-6.03
-5.84
-5.03
-3.84
-2.66
-1.83
-1.56
-1.82
-2.34
-2.8
-2.86
-2.26
-0.89
1.26
4.03
7.05
9.82
11.85
12.77
12.55
11.42
9.81
8.03
6.1
3.74
0.53
-3.83
-9.27
-15.3
-21.13
-25.88
-28.89
-29.78
-28.62
-25.75
-21.68
-16.89
-11.78
-6.56
-1.32
3.83
8.69
12.91
16.06
17.7
17.63
15.91
12.92
9.23
5.43
2.03
-0.71
-2.7
-3.95
-4.53
-4.48
-3.84
-2.65
-0.97
1.05
3.27
5.48
7.45
8.99
9.99
10.44
10.54
10.47
10.4
10.29
9.9
8.9
7.08
4.43
1.21
-2.15
-5.2
-7.59
-9.14
-9.82
-9.73
-9.06
-7.98
-6.7
-5.38
-4.13
-2.98
-1.91
-0.93
-0.17
0.13
-0.36
-1.89
-4.51
-7.98
-11.78
-15.33
-18.17
-20.18
-21.59
-22.83
-24.29
-26.13
-28.15
-29.95
-31.09
-31.35
-30.81
-29.88
-29.13
-29.1
-30.19
-32.54
-36.06
-40.46
-45.18
-49.5
-52.55
-53.5
-51.78
-47.25
-40.34
-31.87
-22.89
-14.35
-6.86
-0.71
4.16
7.94
10.87
13.12
14.78
15.91
16.56
16.83
16.81
16.61
16.28
15.84
15.28
14.63
13.99
13.54
13.5
14.01
15.03
16.34
17.61
18.53
18.91
18.74
18.18
17.46
16.8
16.3
15.97
15.72
15.4
14.95
14.34
13.66
13.05
12.6
12.36
12.23
12.02
11.54
10.68
9.47
8.09
6.77
5.7
4.92
4.32
3.71
2.9
1.76
0.32
-1.39
-3.27
-5.25
-7.3
-9.35
-11.35
-13.25
-15.03
-16.72
-18.4
-20.15
-21.99
-23.9
-25.81
-27.7
-29.63
-31.76
-34.33
-37.57
-41.51
-45.92
-50.21
-53.51
-54.88
-53.65
-49.61
-43.08
-34.88
-25.97
-17.28
-9.47
-2.89
2.34
6.3
9.19
11.36
13.2
15.08
17.24
19.65
22.09
24.25
25.85
26.83
27.28
27.4
27.41
27.48
27.63
27.88
28.12
28.3
28.3
28.03
27.4
26.37
25.02
23.5
21.99
20.69
19.74
19.12
18.75
18.45
18.08
17.55
16.84
16.01
15.09
14.16
13.23
12.34
11.51
10.77
10.08
9.44
8.8
8.15
7.47
6.73
5.93
5.03
4.03
2.95
1.83
0.74
-0.29
-1.29
-2.28
-3.31
-4.38
-5.45
-6.51
-7.56
-8.73
-10.19
-12.04
-14.29
-16.74
-19.13
-21.21
-22.92
-24.4
-25.97
-27.95
-30.5
-33.65
-37.2
-40.86
-44.25
-46.96
-48.48
-48.35
-46.22
-42.01
-35.99
-28.73
-20.95
-13.32
-6.3
-0.11
5.23
9.76
13.54
16.63
19.09
20.98
22.34
23.23
23.62
23.58
23.19
22.59
21.97
21.47
21.18
21.1
21.2
21.45
21.79
22.17
22.51
22.72
22.74
22.55
22.2
21.75
21.25
20.75
20.27
19.81
19.38
18.95
18.47
17.87
17.06
16.04
14.84
13.61
12.51
11.68
11.17
10.91
10.78
10.62
10.28
9.67
8.78
7.68
6.5
5.37
4.45
3.81
3.44
3.22
2.96
2.46
1.57
0.29
-1.3
-3.02
-4.73
-6.37
-7.94
-9.49
-11.06
-12.65
-14.21
-15.72
-17.19
-18.68
-20.28
-22.04
-24.02
-26.25
-28.75
-31.47
-34.24
-36.72
-38.43
-38.86
-37.6
-34.43
-29.43
-22.93
-15.47
-7.72
-0.35
6.09
11.27
15.14
17.83
19.62
20.74
21.34
21.51
21.32
20.93
20.49
20.15
19.91
19.69
19.33
18.77
18.07
17.42
17.01
16.94
17.15
17.46
17.67
17.67
17.45
17.11
16.77
16.53
16.41
16.35
16.29
16.16
15.91
15.5
14.96
14.31
13.62
12.97
12.37
11.8
11.15
10.32
9.24
7.93
6.53
5.21
4.11
3.3
2.76
2.4
2.14
1.9
1.64
1.22
0.51
-0.64
-2.27
-4.27
-6.36
-8.19
-9.54
-10.39
-11.0
-11.7
-12.79
-14.33
-16.19
-18.13
-19.92
-21.56
-23.23
-25.19
-27.67
-30.76
-34.36
-38.14
-41.63
-44.27
-45.46
-44.7
-41.71
-36.58
-29.72
-21.87
-13.85
-6.39
0.01
5.17
9.13
12.11
14.35
16.12
17.59
18.83
19.8
20.38
20.51
20.19
19.55
18.81
18.19
17.87
17.88
18.18
18.65
19.19
19.67
19.97
20.04
19.85
19.5
19.08
18.66
18.26
17.8
17.18
16.35
15.32
14.16
12.98
11.84
10.76
9.77
8.88
8.16
7.62
7.2
6.79
6.3
5.64
4.84
3.99
3.18
2.46
1.85
1.28
0.7
0.06
-0.68
-1.55
-2.55
-3.76
-5.17
-6.76
-8.4
-9.92
-11.2
-12.21
-13.13
-14.2
-15.68
-17.65
-20.04
-22.62
-25.13
-27.41
-29.42
-31.27
-33.14
-35.26
-37.86
-41.09
-44.88
-48.84
-52.24
-54.19
-53.88
-50.94
-45.53
-38.34
-30.28
-22.21
-14.68
-7.93
-2.01
3.11
7.5
11.24
14.47
17.31
19.89
22.14
23.96
25.2
25.83
25.96
25.85
25.73
25.74
25.87
26.03
26.14
26.14
26.06
25.92
25.73
25.52
25.27
24.99
24.61
24.07
23.35
22.45
21.45
20.42
19.43
18.44
17.37
16.14
14.72
13.22
11.77
10.47
9.32
8.25
7.15
6.03
4.98
4.16
3.68
3.48
3.35
3.04
2.39
1.42
0.34
-0.57
-1.14
-1.37
-1.41
-1.5
-1.84
-2.52
-3.53
-4.79
-6.2
-7.66
-9.12
-10.58
-12.1
-13.79
-15.69
-17.76
-19.87
-21.82
-23.48
-24.86
-26.08
-27.35
-28.84
-30.66
-32.87
-35.46
-38.33
-41.14
-43.35
-44.21
-43.01
-39.36
-33.41
-25.8
-17.48
-9.41
-2.3
3.51
8.03
11.47
14.06
16.03
17.49
18.48
19.03
19.17
19.0
18.67
18.34
18.1
17.98
17.93
17.93
18.0
18.2
18.57
19.09
19.61
19.93
19.91
19.47
18.7
17.76
16.83
16.03
15.36
14.73
14.02
13.17
12.16
11.07
10.01
9.07
8.29
7.67
7.14
6.66
6.21
5.81
5.49
5.24
5.06
4.88
4.62
4.23
3.64
2.84
1.89
0.87
-0.09
-0.92
-1.57
-2.05
-2.43
-2.78
-3.18
-3.68
-4.31
-5.06
-5.92
-6.82
-7.77
-8.78
-9.97
-11.46
-13.29
-15.36
-17.4
-19.15
-20.44
-21.39
-22.38
-23.86
-26.17
-29.27
-32.71
-35.69
-37.35
-37.01
-34.43
-29.8
-23.71
-16.88
-9.98
-3.48
2.34
7.32
11.39
14.5
16.62
17.81
18.21
17.97
17.31
16.4
15.44
14.58
13.96
13.64
13.63
13.87
14.3
14.86
15.49
16.08
16.46
16.47
16.05
15.28
14.38
13.65
13.27
13.27
13.51
13.78
13.93
13.91
13.76
13.53
13.22
12.77
12.06
11.05
9.81
8.46
7.18
6.11
5.32
4.76
4.33
3.87
3.28
2.5
1.62
0.74
0.02
-0.49
-0.87
-1.28
-1.92
-2.87
-4.08
-5.36
-6.48
-7.3
-7.84
-8.27
-8.83
-9.71
-11.0
-12.67
-14.61
-16.73
-18.95
-21.26
-23.7
-26.37
-29.34
-32.62
-36.05
-39.2
-41.5
-42.26
-40.95
-37.38
-31.82
-24.87
-17.35
-9.99
-3.34
2.34
6.99
10.68
13.52
15.64
17.16
18.21
18.91
19.38
19.67
19.73
19.5
18.9
17.92
16.68
15.41
14.42
13.98
14.18
14.92
15.92
16.84
17.41
17.56
17.39
17.04
16.65
16.23
15.74
15.11
14.31
13.36
12.33
11.24
10.11
8.97
7.87
6.92
6.16
5.59
5.1
4.54
3.82
2.97
2.16
1.51
1.1
0.85
0.61
0.22
-0.34
-1.04
-1.77
-2.48
-3.18
-3.93
-4.79
-5.71
-6.63
-7.52
-8.4
-9.41
-10.71
-12.36
-14.38
-16.66
-19.11
-21.63
-24.16
-26.62
-28.96
-31.13
-33.26
-35.55
-38.25
-41.46
-45.02
-48.45
-51.04
-52.08
-51.11
-48.01
-43.04
-36.71
-29.66
-22.47
-15.62
-9.4
-3.92
0.82
4.94
8.55
11.77
14.66
17.24
19.47
21.25
22.5
23.17
23.31
23.12
22.83
22.68
22.81
23.25
23.91
24.71
25.54
26.31
26.91
27.19
27.0
26.29
25.13
23.73
22.37
21.22
20.35
19.66
18.99
18.2
17.24
16.16
15.04
13.94
12.92
11.95
10.99
9.98
8.87
7.63
6.28
4.87
3.53
2.41
1.54
0.87
0.24
-0.54
-1.55
-2.77
-4.05
-5.2
-6.1
-6.74
-7.2
-7.57
-7.92
-8.29
-8.71
-9.23
-9.9
-10.77
-11.83
-13.04
-14.36
-15.77
-17.29
-18.89
-20.54
-22.19
-23.81
-25.49
-27.37
-29.64
-32.36
-35.41
-38.44
-40.91
-42.18
-41.72
-39.29
-34.94
-29.07
-22.25
-15.11
-8.17
-1.82
3.68
8.21
11.69
14.15
15.69
16.54
16.94
17.13
17.21
17.24
17.24
17.24
17.3
17.46
17.75
18.1
18.47
18.8
19.11
19.39
19.59
19.6
19.31
18.64
17.64
16.45
15.23
14.11
13.12
12.22
11.34
10.5
9.73
9.08
8.58
8.22
7.95
7.72
7.52
7.36
7.23
7.12
7.02
6.86
6.58
6.08
5.29
4.22
2.98
1.79
0.85
0.26
-0.01
-0.16
-0.37
-0.78
-1.38
-2.02
-2.6
-3.06
-3.46
-3.97
-4.72
-5.79
-7.21
-8.91
-10.79
-12.73
-14.56
-16.15
-17.39
-18.31
-19.1
-20.07
-21.53
-23.6
-26.05
-28.35
-29.77
-29.66
-27.7
-24.03
-19.12
-13.66
-8.29
-3.45
0.63
3.88
6.3
7.92
8.72
8.75
8.1
7.0
5.74
4.66
3.99
3.81
4.02
4.44
4.89
5.32
5.8
6.52
7.55
8.88
10.33
11.64
12.58
13.08
13.17
12.97
12.61
12.19
11.72
11.21
10.68
10.24
10.01
10.05
10.34
10.7
10.93
10.84
10.37
9.64
8.84
8.15
7.66
7.3
6.93
6.4
5.69
4.87
4.06
3.36
2.76
2.19
1.52
0.69
-0.34
-1.54
-2.8
-4.07
-5.31
-6.54
-7.84
-9.33
-11.17
-13.42
-16.01
-18.78
-21.5
-23.99
-26.22
-28.33
-30.6
-33.23
-36.33
-39.7
-42.93
-45.44
-46.62
-45.99
-43.26
-38.42
-31.77
-23.9
-15.56
-7.58
-0.64
4.88
8.95
11.84
13.96
15.71
17.31
18.77
19.98
20.8
21.18
21.17
20.95
20.69
20.55
20.61
20.87
21.25
21.69
22.13
22.53
22.82
22.97
22.93
22.65
22.16
21.53
20.87
20.3
19.86
19.47
18.99
18.21
17.04
15.51
13.81
12.18
10.87
9.95
9.36
8.92
8.42
7.76
6.89
5.9
4.84
3.77
2.72
1.71
0.75
-0.16
-1.03
-1.92
-2.92
-4.07
-5.37
-6.75
-8.1
-9.3
-10.36
-11.35
-12.43
-13.77
-15.5
-17.63
-20.09
-22.75
-25.46
-28.06
-30.42
-32.5
-34.38
-36.33
-38.72
-41.89
-45.97
-50.6
-55.04
-58.22
-59.14
-57.19
-52.34
-45.13
-36.42
-27.15
-18.08
-9.75
-2.46
3.64
8.56
12.44
15.54
18.19
20.68
23.16
25.58
27.73
29.34
30.2
30.26
29.65
28.67
27.62
26.75
26.21
26.02
26.11
26.36
26.64
26.81
26.74
26.34
25.59
24.54
23.34
22.21
21.3
20.69
20.3
19.94
19.39
18.51
17.33
15.99
14.65
13.41
12.27
11.18
10.05
8.9
7.85
7.03
6.51
6.19
5.91
5.47
4.82
4.0
3.12
2.29
1.52
0.76
-0.05
-0.94
-1.87
-2.8
-3.75
-4.77
-5.91
-7.17
-8.46
-9.67
-10.73
-11.68
-12.64
-13.72
-14.97
-16.36
-17.86
-19.44
-21.14
-23.06
-25.3
-27.94
-31.02
-34.49
-38.2
-41.74
-44.54
-45.88
-45.16
-42.11
-36.89
-30.07
-22.46
-14.81
-7.68
-1.38
4.01
8.49
12.11
14.89
16.89
18.17
18.84
19.05
18.99
18.86
18.79
18.85
19.02
19.26
19.54
19.86
20.28
20.79
21.31
21.69
21.78
21.52
20.98
20.29
19.6
19.02
18.55
18.14
17.7
17.15
16.46
15.59
14.57
13.48
12.42
11.48
10.7
10.04
9.41
8.75
8.03
7.27
6.53
5.82
5.12
4.38
3.6
2.79
2.03
1.42
0.98
0.66
0.32
-0.17
-0.93
-1.94
-3.1
-4.23
-5.16
-5.82
-6.27
-6.63
-7.13
-7.94
-9.16
-10.78
-12.67
-14.66
-16.56
-18.22
-19.59
-20.72
-21.75
-22.96
-24.64
-26.98
-29.94
-33.12
-35.82
-37.2
-36.58
-33.69
-28.8
-22.57
-15.8
-9.16
-3.06
2.37
7.1
11.09
14.2
16.29
17.28
17.28
16.58
15.56
14.55
13.78
13.34
13.2
13.29
13.55
13.94
14.45
15.03
15.63
16.19
16.66
16.95
17.01
16.8
16.32
15.61
14.79
14.04
13.49
13.21
13.17
13.18
13.07
12.68
12.01
11.19
10.41
9.86
9.6
9.61
9.74
9.79
9.62
9.12
8.26
7.11
5.76
4.37
3.12
2.17
1.59
1.37
1.34
1.31
1.07
0.54
-0.27
-1.29
-2.42
-3.59
-4.77
-6.04
-7.46
-9.11
-11.03
-13.18
-15.42
-17.6
-19.55
-21.21
-22.59
-23.85
-25.18
-26.75
-28.67
-30.9
-33.2
-35.19
-36.33
-36.07
-34.03
-30.11
-24.62
-18.1
-11.26
-4.72
1.11
6.04
10.06
13.23
15.59
17.12
17.81
17.7
16.96
15.86
14.75
13.9
13.49
13.48
13.74
14.09
14.42
14.71
15.01
15.38
15.79
16.18
16.4
16.37
16.07
15.55
14.92
14.29
13.7
13.11
12.44
11.57
10.5
9.31
8.19
7.3
6.7
6.31
5.94
5.44
4.72
3.85
2.96
2.19
1.62
1.23
0.93
0.66
0.31
-0.19
-0.94
-2.01
-3.41
-5.09
-6.92
-8.78
-10.55
-12.19
-13.69
-15.12
-16.55
-18.08
-19.77
-21.61
-23.54
-25.43
-27.14
-28.63
-29.95
-31.3
-32.97
-35.26
-38.32
-42.01
-45.83
-48.99
-50.62
-50.03
-46.93
-41.57
-34.61
-26.9
-19.18
-11.96
-5.49
0.11
4.78
8.48
11.26
13.35
15.06
16.71
18.44
20.17
21.65
22.58
22.86
22.56
21.94
21.35
21.0
21.0
21.33
21.88
22.55
23.19
23.69
23.94
23.86
23.43
22.66
21.65
20.5
19.34
18.27
17.35
16.63
16.08
15.62
15.15
14.52
13.59
12.34
10.81
9.18
7.65
6.4
5.5
4.89
4.36
3.74
2.93
1.95
0.94
0.06
-0.64
-1.21
-1.78
-2.51
-3.5
-4.77
-6.26
-7.87
-9.51
-11.09
-12.56
-13.97
-15.36
-16.85
-18.52
-20.43
-22.56
-24.84
-27.16
-29.43
-31.65
-33.87
-36.25
-39.0
-42.22
-45.79
-49.25
-51.88
-52.8
-51.34
-47.26
-40.88
-32.96
-24.47
-16.24
-8.85
-2.49
2.86
7.38
11.19
14.38
17.0
19.06
20.65
21.87
22.85
23.65
24.26
24.62
24.63
24.31
23.73
23.12
22.65
22.47
22.59
22.89
23.18
23.32
23.21
22.88
22.37
21.74
21.01
20.18
19.25
18.23
17.19
16.17
15.21
14.33
13.52
12.77
12.04
11.34
10.65
9.95
9.23
8.51
7.85
7.34
7.02
6.87
6.8
6.72
6.53
6.24
5.87
5.47
4.98
4.29
3.26
1.83
0.06
-1.83
-3.63
-5.17
-6.49
-7.7
-9.01
-10.58
-12.47
-14.66
-17.07
-19.54
-21.92
-24.08
-25.92
-27.46
-28.86
-30.4
-32.39
-35.0
-38.16
-41.47
-44.28
-45.85
-45.51
-42.92
-38.11
-31.53
-23.91
-16.07
-8.72
-2.34
2.92
7.16
10.63
13.6
16.22
18.51
20.37
21.7
22.43
22.62
22.44
22.13
21.94
22.01
22.34
22.82
23.31
23.68
23.93
24.07
24.14
24.1
23.89
23.43
22.75
22.0
21.39
21.1
21.15
21.39
21.56
21.41
20.78
19.67
18.22
16.65
15.17
13.92
12.94
12.16
11.47
10.79
10.08
9.35
8.64
7.94
7.18
6.29
5.24
4.03
2.76
1.52
0.38
-0.71
-1.79
-2.93
-4.17
-5.47
-6.8
-8.14
-9.52
-10.99
-12.62
-14.48
-16.59
-18.94
-21.41
-23.86
-26.13
-28.17
-30.03
-31.93
-34.16
-36.95
-40.33
-44.04
-47.48
-49.89
-50.54
-48.95
-45.03
-39.12
-31.83
-23.93
-16.1
-8.82
-2.37
3.17
7.83
11.71
14.97
17.72
20.08
22.05
23.56
24.53
24.91
24.77
24.29
23.7
23.22
22.96
22.96
23.19
23.6
24.14
24.72
25.23
25.54
25.51
25.12
24.39
23.42
22.28
21.04
19.73
18.38
17.04
15.73
14.48
13.32
12.24
11.32
10.58
10.05
9.63
9.15
8.41
7.31
5.92
4.51
3.37
2.71
2.47
2.42
2.27
1.79
1.01
0.09
-0.77
-1.51
-2.22
-3.1
-4.33
-5.93
-7.76
-9.59
-11.21
-12.54
-13.66
-14.75
-16.04
-17.62
-19.5
-21.59
-23.72
-25.76
-27.66
-29.44
-31.2
-33.06
-35.2
-37.75
-40.77
-44.2
-47.74
-50.82
-52.68
-52.61
-50.13
-45.22
-38.34
-30.3
-22.02
-14.26
-7.47
-1.75
3.02
7.06
10.6
13.77
16.6
19.09
21.19
22.86
24.04
24.75
25.0
24.87
24.5
24.04
23.69
23.67
24.1
24.96
26.07
27.09
27.66
27.61
26.94
25.94
24.93
24.16
23.7
23.41
23.06
22.47
21.62
20.58
19.46
18.33
17.15
15.9
14.59
13.26
12.02
10.94
9.97
8.99
7.88
6.64
5.38
4.29
3.5
2.97
2.51
1.89
0.97
-0.22
-1.49
-2.66
-3.63
-4.49
-5.36
-6.35
-7.43
-8.5
-9.45
-10.29
-11.11
-12.09
-13.36
-14.96
-16.82
-18.8
-20.74
-22.52
-24.11
-25.56
-26.99
-28.62
-30.66
-33.24
-36.36
-39.75
-42.94
-45.26
-46.07
-44.91
-41.66
-36.56
-30.14
-23.05
-15.9
-9.2
-3.23
1.87
6.13
9.66
12.6
15.1
17.2
18.89
20.09
20.74
20.89
20.65
20.23
19.8
19.49
19.35
19.44
19.8
20.44
21.28
22.18
22.91
23.26
23.14
22.6
21.8
20.98
20.33
19.91
19.68
19.49
19.16
18.58
17.68
16.51
15.15
13.75
12.42
11.23
10.19
9.31
8.61
8.08
7.7
7.4
7.05
6.52
5.68
4.52
3.15
1.74
0.5
-0.5
-1.3
-2.07
-2.97
-4.08
-5.35
-6.6
-7.64
-8.36
-8.79
-9.07
-9.4
-9.99
-10.96
-12.39
-14.22
-16.35
-18.56
-20.65
-22.46
-23.98
-25.36
-26.87
-28.79
-31.26
-34.16
-37.1
-39.48
-40.69
-40.18
-37.77
-33.56
-27.98
-21.63
-15.1
-8.86
-3.24
1.62
5.7
9.02
11.65
13.64
15.04
15.94
16.39
16.48
16.34
16.15
16.05
16.18
16.58
17.2
17.95
18.76
19.58
20.43
21.32
22.21
23.04
23.73
24.23
24.58
24.88
25.2
25.52
25.67
25.45
24.66
23.22
21.24
18.93
16.57
14.36
12.43
10.75
9.25
7.91
6.69
5.63
4.7
3.8
2.82
1.66
0.4
-0.79
-1.71
-2.23
-2.48
-2.72
-3.25
-4.22
-5.56
-7.03
-8.39
-9.51
-10.46
-11.41
-12.56
-13.95
-15.59
-17.39
-19.28
-21.17
-22.99
-24.62
-26.02
-27.22
-28.36
-29.71
-31.61
-34.28
-37.74
-41.6
-45.16
-47.53
-47.87
-45.65
-40.88
-34.07
-26.1
-17.94
-10.37
-3.83
1.54
5.85
9.29
12.05
14.35
16.36
18.15
19.74
21.03
21.88
22.27
22.23
21.96
21.68
21.53
21.53
21.61
21.68
21.69
21.67
21.66
21.68
21.67
21.53
21.16
20.55
19.73
18.81
17.87
16.97
16.09
15.2
14.22
13.09
11.83
10.5
9.25
8.21
7.47
7.0
6.67
6.31
5.82
5.16
4.41
3.62
2.82
1.96
1.0
-0.08
-1.22
-2.33
-3.35
-4.34
-5.39
-6.65
-8.18
-9.93
-11.8
-13.69
-15.57
-17.5
-19.53
-21.65
-23.77
-25.75
-27.49
-29.01
-30.41
-31.89
-33.65
-35.83
-38.52
-41.68
-45.08
-48.28
-50.56
-51.15
-49.43
-45.19
-38.78
-30.98
-22.73
-14.88
-7.88
-1.86
3.25
7.63
11.39
14.6
17.33
19.65
21.59
23.18
24.36
25.07
25.28
25.07
24.6
24.08
23.7
23.55
23.62
23.86
24.17
24.5
24.82
25.09
25.22
25.11
24.63
23.74
22.56
21.3
20.18
19.27
18.48
17.59
16.43
15.0
13.47
12.08
10.97
10.11
9.35
8.47
7.35
6.01
4.57
3.13
1.77
0.55
-0.46
-1.23
-1.75
-2.09
-2.42
-2.91
-3.65
-4.63
-5.74
-6.83
-7.83
-8.73
-9.62
-10.63
-11.86
-13.4
-15.29
-17.46
-19.81
-22.12
-24.22
-25.99
-27.48
-28.91
-30.63
-32.98
-36.18
-40.17
-44.56
-48.68
-51.63
-52.57
-50.92
-46.58
-39.97
-31.91
-23.33
-15.09
-7.72
-1.45
3.75
8.02
11.56
14.55
17.14
19.43
21.46
23.18
24.5
25.32
25.61
25.43
24.96
24.42
23.97
23.74
23.72
23.84
24.01
24.09
23.99
23.66
23.11
22.43
21.71
21.05
20.5
20.01
19.48
18.8
17.94
16.89
15.69
14.4
13.03
11.63
10.28
9.09
8.2
7.64
7.35
7.15
6.84
6.28
5.45
4.5
3.63
2.99
2.63
2.45
2.32
2.13
1.84
1.49
1.08
0.59
-0.09
-1.05
-2.33
-3.83
-5.37
-6.78
-8.02
-9.18
-10.5
-12.12
-14.09
-16.22
-18.24
-19.9
-21.13
-22.05
-22.96
-24.21
-26.09
-28.72
-31.98
-35.49
-38.62
-40.67
-40.99
-39.17
-35.19
-29.35
-22.3
-14.79
-7.54
-1.06
4.38
8.77
12.23
14.96
17.11
18.78
20.01
20.82
21.28
21.5
21.62
21.72
21.82
21.86
21.77
21.56
21.31
21.13
21.09
21.18
21.3
21.3
21.1
20.69
20.16
19.59
19.01
18.38
17.66
16.8
15.83
14.83
13.84
12.92
12.03
11.15
10.26
9.35
8.43
7.55
6.73
6.01
5.46
5.07
4.81
4.58
4.21
3.6
2.74
1.7
0.64
-0.28
-1.01
-1.61
-2.23
-3.0
-3.98
-5.13
-6.28
-7.31
-8.21
-9.1
-10.22
-11.78
-13.88
-16.46
-19.3
-22.13
-24.75
-27.04
-29.01
-30.74
-32.36
-34.05
-36.05
-38.54
-41.6
-45.02
-48.29
-50.67
-51.38
-49.84
-45.88
-39.79
-32.24
-24.09
-16.16
-9.04
-3.05
1.81
5.79
9.22
12.47
15.73
18.94
21.9
24.3
25.94
26.88
27.38
27.79
28.41
29.31
30.32
31.16
31.6
31.55
31.09
30.33
29.3
27.93
26.13
23.9
21.44
19.09
17.22
16.04
15.54
15.48
15.52
15.36
14.85
14.0
12.88
11.61
10.32
9.09
7.97
6.97
6.05
5.16
4.25
3.32
2.42
1.61
0.93
0.4
-0.03
-0.43
-0.84
-1.3
-1.79
-2.29
-2.81
-3.37
-4.04
-4.91
-6.04
-7.41
-8.88
-10.24
-11.31
-12.0
-12.44
-12.86
-13.53
-14.59
-16.06
-17.78
-19.56
-21.25
-22.77
-24.19
-25.62
-27.22
-29.13
-31.47
-34.21
-37.13
-39.8
-41.61
-41.94
-40.32
-36.61
-31.01
-24.07
-16.47
-8.92
-1.98
3.95
8.68
12.13
14.38
15.59
16.02
15.97
15.75
15.6
15.67
15.98
16.45
16.91
17.21
17.29
17.21
17.09
17.1
17.37
17.94
18.71
19.5
20.1
20.32
20.09
19.44
18.47
17.33
16.17
15.08
14.1
13.23
12.44
11.73
11.07
10.44
9.84
9.23
8.65
8.13
7.71
7.42
7.19
6.89
6.41
5.68
4.75
3.76
2.88
2.2
1.7
1.3
0.85
0.28
-0.43
-1.28
-2.25
-3.37
-4.63
-6.01
-7.4
-8.7
-9.81
-10.73
-11.54
-12.41
-13.49
-14.86
-16.47
-18.21
-19.94
-21.61
-23.32
-25.22
-27.5
-30.22
-33.23
-36.18
-38.57
-39.85
-39.53
-37.36
-33.34
-27.78
-21.2
-14.22
-7.42
-1.26
4.0
8.31
11.7
14.28
16.16
17.42
18.1
18.25
17.96
17.38
16.69
16.08
15.68
15.5
15.46
15.47
15.45
15.42
15.41
15.43
15.45
15.38
15.16
14.78
14.3
13.81
13.35
12.91
12.44
11.89
11.24
10.48
9.64
8.76
7.92
7.21
6.7
6.4
6.24
6.09
5.82
5.42
4.95
4.53
4.24
4.08
3.92
3.64
3.12
2.34
1.29
-0.03
-1.63
-3.48
-5.47
-7.42
-9.09
-10.32
-11.08
-11.53
-11.93
-12.57
-13.61
-15.07
-16.83
-18.65
-20.35
-21.77
-22.89
-23.79
-24.63
-25.61
-26.91
-28.57
-30.45
-32.2
-33.23
-33.01
-31.1
-27.45
-22.32
-16.24
-9.81
-3.53
2.25
7.35
11.64
15.03
17.47
18.99
19.67
19.66
19.14
18.27
17.2
16.14
15.3
14.83
14.79
15.11
15.63
16.18
16.67
17.06
17.38
17.59
17.65
17.47
17.03
16.36
15.55
14.69
13.83
12.98
12.13
11.29
10.51
9.83
9.24
8.72
8.19
7.59
6.92
6.17
5.37
4.52
3.64
2.72
1.77
0.79
-0.26
-1.43
-2.82
-4.44
-6.22
-8.02
-9.63
-11.01
-12.23
-13.51
-15.11
-17.16
-19.57
-22.14
-24.6
-26.78
-28.69
-30.53
-32.56
-35.07
-38.18
-41.82
-45.75
-49.45
-52.28
-53.57
-52.74
-49.53
-44.09
-36.95
-28.94
-20.91
-13.58
-7.33
-2.23
1.9
5.34
8.3
10.91
13.16
15.01
16.43
17.38
17.94
18.27
18.63
19.28
20.46
22.29
24.69
27.5
30.48
33.43
36.16
38.5
40.2
40.98
40.62
39.08
36.59
33.56
30.44
27.54
24.93
22.51
20.1
17.64
15.16
12.82
10.79
9.17
7.98
7.22
6.93
7.15
7.92
9.15
10.63
12.05
13.08
13.48
13.18
12.23
10.76
8.89
6.71
4.28
1.7
-0.96
-3.62
-6.29
-9.06
-12.02
-15.18
-18.55
-22.04
-25.64
-29.46
-33.67
-38.51
-44.17
-50.65
-57.77
-65.09
-71.95
-77.5
-80.87
-81.34
-78.58
-72.76
-64.56
-54.97
-45.04
-35.61
-27.11
-19.62
-12.96
-6.93
-1.37
3.78
8.5
12.8
16.61
19.88
22.53
24.49
25.73
26.41
26.78
27.16
27.74
28.51
29.36
30.06
30.48
30.63
30.62
30.59
30.66
30.82
31.0
31.11
31.07
30.83
30.41
29.82
29.11
28.31
27.4
26.38
25.2
23.9
22.55
21.21
19.95
18.77
17.58
16.35
15.08
13.84
12.68
11.62
10.59
9.48
8.21
6.89
5.7
4.89
4.6
4.81
5.33
5.93
6.39
6.6
6.52
6.16
5.59
4.85
3.96
2.91
1.59
-0.15
-2.46
-5.34
-8.67
-12.17
-15.49
-18.41
-20.88
-23.05
-25.23
-27.73
-30.77
-34.38
-38.27
-41.92
-44.62
-45.65
-44.46
-40.91
-35.33
-28.44
-21.14
-14.19
-8.06
-2.86
1.55
5.39
8.78
11.68
13.99
15.62
16.59
17.05
17.19
17.18
17.16
17.19
17.31
17.59
18.09
18.86
19.92
21.19
22.53
23.76
24.69
25.2
25.26
24.96
24.47
23.94
23.48
23.07
22.64
22.15
21.61
21.12
20.77
20.61
20.57
20.46
20.06
19.23
17.94
16.35
14.66
13.08
11.71
10.54
9.42
8.2
6.79
5.18
3.41
1.56
-0.36
-2.35
-4.42
-6.58
-8.77
-10.88
-12.78
-14.39
-15.69
-16.77
-17.78
-18.88
-20.18
-21.67
-23.19
-24.53
-25.51
-26.03
-26.19
-26.18
-26.29
-26.74
-27.68
-29.15
-30.99
-32.92
-34.44
-34.98
-33.99
-31.13
-26.35
-19.96
-12.56
-4.87
2.42
8.77
13.93
17.82
20.55
22.32
23.26
23.49
23.05
22.01
20.49
18.71
16.96
15.5
14.5
14.01
13.95
14.19
14.63
15.14
15.65
16.04
16.21
16.08
15.64
15.04
14.48
14.24
14.51
15.33
16.57
17.89
18.96
19.45
19.2
18.23
16.67
14.71
12.55
10.34
8.16
6.08
4.13
2.35
0.8
-0.51
-1.63
-2.62
-3.6
-4.67
-5.83
-7.05
-8.22
-9.3
-10.27
-11.2
-12.16
-13.19
-14.24
-15.29
-16.33
-17.42
-18.71
-20.32
-22.33
-24.67
-27.22
-29.82
-32.29
-34.54
-36.48
-38.16
-39.7
-41.37
-43.45
-46.12
-49.24
-52.27
-54.38
-54.64
-52.36
-47.32
-39.77
-30.39
-20.03
-9.51
0.47
9.37
16.85
22.71
26.98
29.84
31.55
32.39
32.49
31.87
30.5
28.45
25.89
23.11
20.42
18.02
16.03
14.46
13.28
12.45
11.94
11.65
11.43
11.16
10.73
10.13
9.38
8.5
7.54
6.53
5.52
4.59
3.84
3.33
3.03
2.86
2.66
2.3
1.72
0.94
0.06
-0.81
-1.59
-2.2
-2.63
-2.84
-2.8
-2.48
-1.95
-1.4
-1.09
-1.31
-2.22
-3.75
-5.64
-7.49
-8.99
-10.03
-10.73
-11.35
-12.16
-13.31
-14.77
-16.45
-18.22
-20.05
-21.94
-23.93
-25.97
-27.97
-29.88
-31.73
-33.71
-36.09
-39.07
-42.57
-46.17
-49.15
-50.65
-49.97
-46.8
-41.3
-34.09
-26.01
-17.92
-10.45
-3.96
1.45
5.9
9.61
12.82
15.71
18.43
20.98
23.29
25.18
26.51
27.18
27.24
26.87
26.32
25.85
25.67
25.84
26.35
27.09
27.91
28.62
29.05
29.06
28.63
27.87
26.98
26.2
25.69
25.41
25.22
24.88
24.22
23.19
21.88
20.46
19.07
17.79
16.63
15.58
14.59
13.63
12.63
11.52
10.24
8.8
7.26
5.7
4.2
2.81
1.5
0.25
-0.96
-2.15
-3.34
-4.57
-5.89
-7.33
-8.94
-10.69
-12.59
-14.63
-16.77
-18.96
-21.07
-22.99
-24.69
-26.26
-27.93
-30.0
-32.72
-36.16
-40.16
-44.22
-47.66
-49.7
-49.67
-47.2
-42.34
-35.58
-27.68
-19.5
-11.72
-4.7
1.47
6.86
11.56
15.61
18.97
21.61
23.57
24.97
25.93
26.59
27.02
27.24
27.31
27.31
27.35
27.53
27.91
28.44
28.99
29.39
29.46
29.1
28.34
27.32
26.24
25.27
24.52
23.94
23.41
22.77
21.92
20.82
19.49
17.99
16.4
14.79
13.25
11.9
10.8
9.96
9.3
8.65
7.86
6.82
5.53
4.06
2.49
0.86
-0.86
-2.71
-4.65
-6.56
-8.29
-9.69
-10.77
-11.7
-12.77
-14.28
-16.4
-19.04
-21.92
-24.68
-27.02
-28.87
-30.39
-31.92
-33.85
-36.48
-39.88
-43.9
-48.1
-51.8
-54.22
-54.63
-52.53
-47.84
-40.95
-32.62
-23.78
-15.3
-7.76
-1.42
3.78
8.04
11.68
14.96
18.04
21.0
23.76
26.15
27.95
29.01
29.34
29.1
28.57
28.03
27.7
27.65
27.84
28.15
28.47
28.68
28.71
28.52
28.07
27.39
26.54
25.61
24.69
23.83
23.02
22.23
21.4
20.49
19.51
18.49
17.46
16.42
15.37
14.28
13.17
12.09
11.1
10.25
9.54
8.95
8.38
7.74
6.96
5.98
4.82
3.53
2.22
1.04
0.09
-0.61
-1.17
-1.75
-2.55
-3.67
-5.13
-6.84
-8.68
-10.52
-12.31
-14.01
-15.62
-17.14
-18.59
-20.03
-21.49
-23.03
-24.67
-26.42
-28.27
-30.28
-32.56
-35.27
-38.56
-42.49
-46.87
-51.23
-54.83
-56.83
-56.53
-53.52
-47.86
-40.04
-30.89
-21.37
-12.34
-4.43
2.06
7.1
10.92
13.82
16.09
17.94
19.45
20.62
21.41
21.82
21.88
21.64
21.19
20.66
20.17
19.86
19.84
20.12
20.62
21.19
21.68
21.97
21.99
21.74
21.27
20.71
20.16
19.73
19.42
19.14
18.7
17.92
16.72
15.17
13.47
11.84
10.48
9.45
8.77
8.4
8.3
8.38
8.55
8.65
8.51
8.01
7.16
6.03
4.79
3.61
2.6
1.77
1.07
0.35
-0.54
-1.71
-3.22
-4.98
-6.86
-8.66
-10.15
-11.22
-11.8
-11.97
-11.87
-11.72
-11.75
-12.14
-12.93
-14.05
-15.27
-16.4
-17.34
-18.13
-19.03
-20.29
-22.11
-24.53
-27.35
-30.17
-32.51
-33.77
-33.44
-31.21
-27.04
-21.28
-14.54
-7.58
-1.05
4.58
9.14
12.63
15.13
16.73
17.47
17.47
16.87
15.93
14.93
14.12
13.64
13.53
13.79
14.35
15.17
16.22
17.41
18.64
19.8
20.76
21.45
21.79
21.8
21.49
20.92
20.18
19.39
18.68
18.07
17.54
16.94
16.16
15.16
14.0
12.83
11.83
11.03
10.33
9.55
8.51
7.1
5.38
3.53
1.78
0.3
-0.78
-1.45
-1.79
-1.95
-2.11
-2.46
-3.11
-4.08
-5.34
-6.79
-8.36
-10.07
-11.99
-14.21
-16.72
-19.43
-22.11
-24.53
-26.52
-28.08
-29.35
-30.58
-32.04
-33.97
-36.51
-39.64
-43.1
-46.38
-48.78
-49.51
-48.01
-44.08
-38.03
-30.57
-22.58
-14.83
-7.86
-1.86
3.19
7.4
10.93
13.88
16.4
18.56
20.4
21.87
22.88
23.36
23.35
22.99
22.54
22.2
22.15
22.42
22.97
23.68
24.41
25.0
25.3
25.22
24.77
24.02
23.12
22.22
21.43
20.75
20.14
19.47
18.64
17.59
16.28
14.8
13.27
11.87
10.71
9.85
9.17
8.46
7.52
6.25
4.7
3.05
1.47
0.07
-1.17
-2.34
-3.57
-4.92
-6.35
-7.78
-9.13
-10.46
-11.88
-13.56
-15.61
-18.05
-20.77
-23.56
-26.22
-28.57
-30.57
-32.27
-33.87
-35.61
-37.75
-40.48
-43.86
-47.69
-51.52
-54.62
-56.17
-55.46
-52.12
-46.26
-38.45
-29.61
-20.67
-12.43
-5.32
0.54
5.33
9.32
12.76
15.84
18.69
21.33
23.74
25.84
27.48
28.56
29.04
28.94
28.41
27.66
26.91
26.36
26.12
26.18
26.47
26.88
27.28
27.53
27.53
27.23
26.64
25.83
24.89
23.91
22.9
21.83
20.63
19.27
17.76
16.19
14.62
13.15
11.77
10.47
9.21
8.02
6.9
5.85
4.84
3.83
2.76
1.63
0.43
-0.77
-1.95
-3.08
-4.2
-5.31
-6.43
-7.55
-8.62
-9.6
-10.48
-11.28
-12.09
-13.03
-14.19
-15.66
-17.44
-19.42
-21.46
-23.37
-25.03
-26.46
-27.81
-29.36
-31.37
-34.06
-37.52
-41.63
-46.09
-50.38
-53.8
-55.62
-55.2
-52.22
-46.81
-39.47
-31.01
-22.25
-13.9
-6.39
0.08
5.48
9.93
13.62
16.74
19.45
21.85
23.89
25.49
26.54
27.04
27.06
26.77
26.36
26.02
25.87
25.98
26.33
26.84
27.36
27.75
27.84
27.56
26.9
25.94
24.81
23.6
22.38
21.17
19.99
18.86
17.85
16.98
16.28
15.7
15.18
14.65
14.02
13.31
12.49
11.62
10.73
9.87
9.06
8.29
7.48
6.63
5.73
4.88
4.19
3.75
3.52
3.34
3.04
2.48
1.66
0.67
-0.39
-1.46
-2.59
-3.85
-5.27
-6.77
-8.24
-9.6
-10.89
-12.26
-13.87
-15.77
-17.84
-19.84
-21.54
-22.85
-23.91
-25.05
-26.65
-29.0
-32.21
-36.08
-40.18
-43.86
-46.38
-47.04
-45.38
-41.28
-35.05
-27.37
-19.04
-10.88
-3.46
2.91
8.2
12.53
16.04
18.87
21.06
22.64
23.61
24.03
24.02
23.73
23.29
22.79
22.35
22.01
21.83
21.9
22.21
22.73
23.33
23.84
24.1
24.02
23.59
22.87
21.92
20.84
19.7
18.6
17.64
16.82
16.13
15.41
14.56
13.51
12.32
11.15
10.16
9.43
8.92
8.49
7.97
7.26
6.39
5.42
4.49
3.67
2.96
2.34
1.74
1.12
0.43
-0.34
-1.17
-2.05
-2.93
-3.8
-4.66
-5.57
-6.6
-7.78
-9.06
-10.35
-11.53
-12.53
-13.4
-14.33
-15.54
-17.19
-19.31
-21.75
-24.31
-26.75
-28.97
-30.99
-32.94
-35.06
-37.54
-40.5
-43.83
-47.17
-49.92
-51.37
-50.9
-48.13
-43.1
-36.23
-28.21
-19.84
-11.8
-4.57
1.65
6.87
11.24
14.93
18.01
20.46
22.19
23.14
23.37
23.09
22.57
22.07
21.74
21.6
21.55
21.54
21.51
21.55
21.76
22.19
22.8
23.41
23.8
23.76
23.25
22.36
21.34
20.4
19.65
19.11
18.63
18.11
17.44
16.63
15.71
14.73
13.7
12.61
11.47
10.33
9.21
8.13
7.09
6.1
5.18
4.4
3.79
3.37
3.07
2.76
2.32
1.68
0.85
-0.12
-1.1
-2.03
-2.85
-3.6
-4.31
-5.06
-5.94
-7.0
-8.25
-9.65
-11.12
-12.62
-14.14
-15.71
-17.4
-19.22
-21.18
-23.24
-25.3
-27.28
-29.16
-30.99
-32.92
-35.14
-37.78
-40.79
-43.85
-46.36
-47.58
-46.86
-43.88
-38.75
-32.03
-24.48
-16.91
-9.93
-3.86
1.24
5.47
9.01
11.96
14.38
16.31
17.77
18.83
19.54
19.94
20.05
19.91
19.58
19.19
18.94
18.99
19.43
20.19
21.12
22.0
22.65
22.94
22.87
22.51
21.99
21.42
20.88
20.38
19.83
19.11
18.12
16.83
15.32
13.75
12.3
11.11
10.22
9.59
9.08
8.56
7.89
7.03
6.03
5.03
4.18
3.56
3.19
2.96
2.73
2.4
1.91
1.34
0.74
0.17
-0.44
-1.17
-2.14
-3.33
-4.64
-5.86
-6.84
-7.55
-8.15
-8.94
-10.19
-12.04
-14.45
-17.13
-19.77
-22.06
-23.88
-25.26
-26.37
-27.46
-28.79
-30.59
-33.0
-36.0
-39.32
-42.44
-44.64
-45.17
-43.49
-39.37
-33.1
-25.36
-17.05
-9.08
-2.14
3.43
7.68
10.86
13.39
15.53
17.43
19.02
20.18
20.81
21.0
20.93
20.86
20.95
21.2
21.47
21.63
21.63
21.53
21.5
21.63
21.91
22.18
22.26
22.06
21.58
20.92
20.21
19.47
18.67
17.71
16.55
15.22
13.85
12.59
11.53
10.7
10.0
9.32
8.57
7.71
6.77
5.83
4.95
4.19
3.54
2.95
2.37
1.71
0.96
0.07
-0.96
-2.14
-3.47
-4.9
-6.34
-7.67
-8.82
-9.78
-10.68
-11.71
-13.1
-14.98
-17.33
-19.99
-22.71
-25.24
-27.42
-29.26
-30.89
-32.56
-34.54
-37.05
-40.14
-43.62
-47.02
-49.63
-50.65
-49.43
-45.67
-39.53
-31.64
-22.89
-14.21
-6.31
0.4
5.83
10.12
13.49
16.16
18.3
20.0
21.3
22.25
22.89
23.29
23.5
23.53
23.41
23.15
22.84
22.57
22.48
22.61
22.97
23.41
23.76
23.86
23.64
23.08
22.32
21.46
20.66
19.97
19.37
18.79
18.16
17.44
16.62
15.74
14.8
13.8
12.73
11.64
10.57
9.56
8.59
7.59
6.52
5.4
4.33
3.41
2.69
2.07
1.39
0.51
-0.59
-1.8
-2.93
-3.88
-4.67
-5.42
-6.29
-7.3
-8.41
-9.49
-10.48
-11.41
-12.41
-13.64
-15.24
-17.22
-19.55
-22.12
-24.8
-27.46
-29.98
-32.31
-34.48
-36.66
-39.09
-42.04
-45.56
-49.37
-52.81
-55.0
-55.07
-52.54
-47.42
-40.27
-31.93
-23.27
-14.97
-7.46
-0.9
4.69
9.32
13.12
16.22
18.79
21.0
22.93
24.57
25.83
26.64
27.0
26.97
26.69
26.3
25.89
25.56
25.34
25.27
25.33
25.49
25.63
25.6
25.3
24.67
23.78
22.77
21.77
20.86
20.0
19.09
18.04
16.87
15.65
14.49
13.45
12.52
11.64
10.74
9.82
8.91
8.09
7.39
6.82
6.35
5.96
5.66
5.42
5.22
4.96
4.56
3.96
3.18
2.3
1.42
0.6
-0.18
-0.95
-1.84
-2.9
-4.13
-5.46
-6.8
-8.08
-9.31
-10.58
-12.0
-13.7
-15.74
-18.04
-20.48
-22.87
-25.04
-26.89
-28.48
-29.98
-31.65
-33.76
-36.44
-39.58
-42.78
-45.44
-46.83
-46.38
-43.74
-38.92
-32.29
-24.49
-16.32
-8.5
-1.59
4.14
8.69
12.21
14.92
16.98
18.45
19.37
19.78
19.79
19.61
19.44
19.46
19.71
20.12
20.58
21.0
21.39
21.8
22.33
22.96
23.57
23.98
24.05
23.71
23.06
22.25
21.4
20.61
19.86
19.13
18.42
17.72
17.03
16.36
15.66
14.88
13.98
12.95
11.83
10.69
9.62
8.68
7.92
7.34
6.91
6.59
6.35
6.18
6.05
5.9
5.65
5.23
4.59
3.75
2.77
1.71
0.59
-0.58
-1.83
-3.15
-4.55
-6.06
-7.67
-9.37
-11.16
-12.97
-14.74
-16.39
-17.9
-19.31
-20.69
-22.13
-23.71
-25.5
-27.57
-30.02
-32.92
-36.26
-39.81
-43.08
-45.34
-45.89
-44.22
-40.25
-34.41
-27.4
-20.03
-12.95
-6.55
-1.01
3.63
7.35
10.18
12.18
13.51
14.33
14.79
14.98
14.91
14.6
14.13
13.64
13.35
13.39
13.85
14.66
15.7
16.8
17.85
18.73
19.38
19.78
19.94
19.88
19.64
19.3
18.89
18.44
17.92
17.27
16.48
15.56
14.6
13.7
12.94
12.36
11.9
11.46
10.94
10.25
9.38
8.34
7.22
6.13
5.17
4.4
3.77
3.19
2.55
1.82
1.09
0.51
0.2
0.16
0.23
0.16
-0.27
-1.14
-2.4
-3.87
-5.38
-6.83
-8.18
-9.44
-10.65
-11.89
-13.21
-14.64
-16.17
-17.68
-19.02
-20.03
-20.66
-21.0
-21.27
-21.78
-22.73
-24.12
-25.73
-27.1
-27.69
-27.0
-24.76
-20.97
-15.94
-10.16
-4.16
1.56
6.64
10.89
14.22
16.63
18.17
18.91
18.97
18.51
17.7
16.73
15.75
14.85
14.06
13.37
12.81
12.41
12.23
12.3
12.58
12.92
13.16
13.17
12.93
12.53
12.13
11.84
11.71
11.71
11.71
11.57
11.19
10.55
9.74
8.87
8.08
7.41
6.81
6.16
5.34
4.32
3.18
2.07
1.17
0.56
0.21
-0.0
-0.22
-0.58
-1.09
-1.77
-2.54
-3.36
-4.21
-5.1
-6.04
-7.04
-8.07
-9.08
-10.06
-11.07
-12.22
-13.68
-15.55
-17.79
-20.21
-22.54
-24.51
-25.96
-26.96
-27.72
-28.57
-29.83
-31.75
-34.41
-37.67
-41.1
-44.05
-45.73
-45.46
-42.85
-37.97
-31.34
-23.72
-15.91
-8.52
-1.93
3.7
8.35
12.07
14.95
17.12
18.71
19.83
20.56
20.91
20.89
20.61
20.18
19.79
19.54
19.48
19.58
19.78
20.08
20.48
20.96
21.42
21.72
21.7
21.3
20.59
19.76
18.99
18.37
17.86
17.36
16.78
16.09
15.34
14.58
13.81
12.97
12.0
10.87
9.63
8.42
7.33
6.37
5.48
4.56
3.55
2.51
1.52
0.68
0.04
-0.41
-0.77
-1.16
-1.68
-2.4
-3.35
-4.5
-5.79
-7.17
-8.6
-10.1
-11.75
-13.64
-15.85
-18.36
-21.07
-23.79
-26.3
-28.46
-30.24
-31.78
-33.38
-35.35
-37.97
-41.31
-45.16
-49.04
-52.2
-53.82
-53.2
-49.91
-43.99
-35.99
-26.8
-17.5
-8.99
-1.87
3.73
8.0
11.32
14.03
16.36
18.4
20.16
21.69
22.98
24.06
24.87
25.34
25.41
25.1
24.55
24.01
23.67
23.63
23.84
24.09
24.16
23.96
23.54
23.05
22.65
22.38
22.12
21.74
21.13
20.3
19.38
18.49
17.69
16.87
15.94
14.82
13.57
12.37
11.39
10.75
10.37
10.09
9.74
9.19
8.45
7.58
6.7
5.88
5.09
4.27
3.37
2.28
1.02
-0.38
-1.84
-3.29
-4.7
-6.08
-7.44
-8.83
-10.29
-11.86
-13.56
-15.45
-17.54
-19.82
-22.25
-24.78
-27.29
-29.69
-31.86
-33.71
-35.29
-36.79
-38.53
-40.83
-43.89
-47.56
-51.39
-54.6
-56.37
-56.05
-53.29
-48.18
-41.16
-32.86
-23.99
-15.26
-7.26
-0.41
5.11
9.33
12.52
15.03
17.22
19.32
21.33
23.12
24.49
25.31
25.61
25.53
25.3
25.07
24.94
24.94
25.07
25.32
25.67
26.1
26.48
26.71
26.68
26.37
25.85
25.26
24.75
24.38
24.11
23.83
23.37
22.62
21.55
20.24
18.91
17.76
16.95
16.44
15.99
15.31
14.18
12.61
10.86
9.32
8.24
7.63
7.24
6.68
5.72
4.37
2.85
1.45
0.36
-0.46
-1.19
-2.03
-3.11
-4.41
-5.84
-7.27
-8.58
-9.69
-10.65
-11.53
-12.51
-13.74
-15.32
-17.25
-19.4
-21.6
-23.69
-25.63
-27.46
-29.33
-31.44
-33.96
-36.95
-40.29
-43.55
-46.02
-46.87
-45.45
-41.5
-35.32
-27.68
-19.55
-11.77
-4.9
0.88
5.61
9.43
12.5
14.9
16.73
18.03
18.84
19.19
19.16
18.92
18.69
18.7
19.06
19.74
20.59
21.46
22.27
23.05
23.84
24.59
25.14
25.29
24.96
24.27
23.51
23.02
22.95
23.21
23.5
23.45
22.85
21.68
20.13
18.44
16.83
15.42
14.26
13.32
12.6
12.01
11.45
10.78
9.9
8.74
7.35
5.85
4.39
3.11
2.02
1.11
0.3
-0.56
-1.59
-2.85
-4.35
-5.99
-7.61
-9.06
-10.27
-11.27
-12.24
-13.42
-15.01
-17.06
-19.49
-22.04
-24.46
-26.62
-28.53
-30.39
-32.5
-35.15
-38.47
-42.4
-46.52
-50.19
-52.6
-52.97
-50.84
-46.19
-39.49
-31.49
-23.03
-14.79
-7.25
-0.63
4.96
9.49
13.05
15.82
18.07
20.08
21.97
23.71
25.08
25.91
26.11
25.78
25.16
24.5
24.0
23.79
23.91
24.36
25.09
25.99
26.88
27.53
27.71
27.29
26.29
24.88
23.29
21.76
20.47
19.47
18.7
18.07
17.44
16.73
15.91
15.04
14.22
13.48
12.84
12.19
11.43
10.47
9.33
8.1
6.95
5.99
5.26
4.67
4.09
3.45
2.76
2.09
1.53
1.07
0.6
-0.03
-0.96
-2.2
-3.63
-5.09
-6.42
-7.56
-8.59
-9.65
-10.9
-12.41
-14.17
-16.12
-18.13
-20.13
-22.04
-23.87
-25.59
-27.25
-28.93
-30.76
-32.92
-35.56
-38.67
-41.94
-44.8
-46.47
-46.27
-43.74
-38.91
-32.23
-24.47
-16.45
-8.83
-2.05
3.76
8.63
12.64
15.81
18.16
19.65
20.32
20.33
19.94
19.5
19.25
19.35
19.75
20.26
20.64
20.66
20.16
19.07
17.46
15.51
13.47
11.59
10.1
9.09
8.58
8.52
8.92
9.87
11.43
13.55
16.01
18.37
20.07
20.63
19.8
17.61
14.37
10.42
6.11
1.68
-2.61
-6.49
-9.59
-11.62
-12.47
-12.26
-11.29
-9.89
-8.28
-6.52
-4.58
-2.49
-0.36
1.6
3.17
4.22
4.68
4.55
3.82
2.51
0.78
-1.16
-3.03
-4.58
-5.7
-6.41
-6.81
-6.98
-6.92
-6.6
-6.0
-5.07
-3.76
-1.99
0.27
2.92
5.66
8.05
9.75
10.72
11.28
12.05
13.64
16.41
20.34
25.07
30.12
35.1
39.77
43.96
47.49
50.09
51.52
51.61
50.43
48.27
45.52
42.62
39.83
37.27
34.84
32.31
29.47
26.17
22.44
18.49
14.63
11.17
8.29
5.96
3.83
1.35
-2.01
-6.49
-11.71
-16.54
-19.37
-18.67
-13.69
-4.93
5.94
16.53
24.66
28.99
29.36
26.54
21.72
16.12
10.63
5.95
2.61
1.01
1.26
3.03
5.52
7.63
8.4
7.33
4.64
1.13
-2.24
-4.64
-5.8
-5.97
-5.74
-5.76
-6.49
-8.14
-10.61
-13.65
-16.92
-20.09
-22.9
-25.24
-27.2
-29.06
-31.26
-34.28
-38.44
-43.79
-50.03
-56.48
-62.23
-66.32
-68.03
-66.98
-63.27
-57.41
-50.1
-42.12
-34.11
-26.59
-19.89
-14.24
-9.71
-6.28
-3.83
-2.26
-1.57
-1.9
-3.48
-6.5
-10.87
-16.12
-21.44
-25.89
-28.73
-29.6
-28.7
-26.56
-23.82
-20.94
-18.11
-15.22
-12.12
-8.75
-5.31
-2.23
-0.1
0.54
-0.57
-3.39
-7.52
-12.43
-17.53
-22.37
-26.66
-30.31
-33.45
-36.39
-39.5
-43.03
-46.85
-50.36
-52.51
-52.24
-48.84
-42.33
-33.45
-23.42
-13.54
-4.92
1.63
5.41
5.7
1.86
-6.4
-18.71
-33.79
-49.65
-64.04
-75.14
-82.05
-85.0
-85.04
-83.49
-81.3
-78.71
-75.31
-70.4
-63.5
-54.61
-44.25
-33.16
-22.02
-11.2
-0.83
9.09
18.48
27.17
34.96
41.71
47.4
52.07
55.72
58.27
59.62
59.85
59.25
58.43
58.02
58.59
60.31
63.01
66.26
69.53
72.35
74.4
75.47
75.47
74.4
72.41
69.74
66.71
63.55
60.49
57.65
55.21
53.44
52.65
52.9
53.61
53.48
50.97
45.1
36.29
26.48
18.4
14.28
14.84
18.96
24.48
29.29
32.27
33.35
32.91
31.0
27.04
19.92
8.61
-7.37
-27.9
-52.49
-80.63
-111.72
-144.66
-177.28
-205.92
-225.96
-233.06
-224.91
-202.48
-170.1
-134.03
-100.17
-71.89
-49.19
-29.45
-9.55
12.19
35.05
56.51
73.82
85.41
91.4
93.21
92.49
90.33
87.15
83.08
78.61
74.84
73.15
74.52
78.92
85.13
91.16
94.99
95.26
91.62
84.57
75.09
64.31
53.36
43.29
35.08
29.58
27.2
27.82
30.73
34.91
39.51
44.37
50.15
58.17
69.81
85.74
105.45
127.21
148.51
166.73
179.75
186.27
185.81
178.61
165.44
147.6
126.8
104.98
84.05
65.51
50.31
38.84
30.98
26.17
23.5
21.7
19.43
15.63
9.88
2.52
-5.62
-13.52
-20.34
-25.56
-29.17
-31.75
-34.59
-39.55
-48.51
-62.63
-81.58
-103.47
-125.39
-144.58
-159.31
-169.17
-174.72
-176.74
-175.66
-171.7
-165.24
-157.22
-149.04
-142.01
-136.68
-132.53
-128.27
-122.47
-114.36
-104.11
-92.7
-81.44
-71.35
-63.03
-56.61
-52.09
-49.44
-48.69
-49.7
-52.02
-54.79
-56.8
-56.67
-53.13
-45.29
-32.89
-16.44
2.85
23.44
43.87
63.16
81.01
97.58
113.05
127.17
139.08
147.45
150.97
148.71
140.47
126.77
108.58
87.08
63.55
39.35
16.0
-4.89
-21.94
-34.36
-42.35
-47.04
-50.18
-53.47
-57.98
-63.8
-70.18
-75.83
-79.41
-79.87
-76.75
-70.25
-61.2
-51.0
-41.24
-33.39
-28.28
-25.97
-25.86
-27.15
-29.33
-32.39
-36.67
-42.28
-48.7
-54.63
-58.46
-58.93
-55.76
-49.78
-42.6
-35.85
-30.59
-27.02
-24.64
-22.75
-20.9
-19.05
-17.51
-16.59
-16.39
-16.64
-16.88
-16.62
-15.55
-13.63
-11.03
-8.04
-4.92
-1.87
0.99
3.63
6.02
8.14
9.98
11.55
12.88
14.04
15.08
16.07
17.0
17.8
18.42
18.84
19.16
19.52
20.1
20.99
22.21
23.61
24.97
26.07
26.71
26.81
26.35
25.39
24.05
22.48
20.86
19.37
18.14
17.21
16.47
15.76
14.87
13.73
12.38
10.98
9.65
8.43
7.21
5.76
3.95
1.78
-0.56
-2.77
-4.6
-5.97
-7.04
-8.09
-9.4
-11.19
-13.45
-16.05
-18.79
-21.5
-24.11
-26.67
-29.27
-32.08
-35.22
-38.77
-42.67
-46.75
-50.58
-53.55
-54.91
-53.96
-50.29
-43.93
-35.43
-25.69
-15.73
-6.42
1.71
8.45
13.88
18.15
21.42
23.77
25.3
26.13
26.45
26.49
26.46
26.53
26.74
27.11
27.63
28.29
29.13
30.15
31.27
32.32
33.08
33.33
32.96
32.01
30.69
29.25
27.95
26.9
26.09
25.41
24.73
24.01
23.31
22.74
22.39
22.26
22.23
22.09
21.69
20.96
19.96
18.8
17.59
16.35
15.07
13.79
12.62
11.73
11.29
11.29
11.62
12.02
12.24
12.1
11.53
10.54
9.21
7.61
5.86
4.09
2.4
0.84
-0.64
-2.2
-4.01
-6.2
-8.8
-11.7
-14.7
-17.59
-20.18
-22.46
-24.52
-26.62
-29.07
-32.07
-35.63
-39.39
-42.69
-44.68
-44.56
-41.82
-36.47
-29.0
-20.32
-11.4
-3.11
4.02
9.83
14.4
17.94
20.63
22.57
23.79
24.32
24.27
23.81
23.14
22.5
22.06
21.95
22.21
22.75
23.44
24.09
24.55
24.78
24.8
24.66
24.37
23.87
23.1
22.06
20.88
19.77
18.96
18.5
18.3
18.14
17.78
17.08
16.04
14.72
13.23
11.71
10.26
8.99
7.94
7.05
6.18
5.21
4.12
3.12
2.5
2.56
3.4
4.89
6.63
8.23
9.34
9.78
9.51
8.56
6.96
4.76
2.05
-1.04
-4.35
-7.71
-11.07
-14.41
-17.8
-21.28
-24.84
-28.41
-31.89
-35.23
-38.48
-41.87
-45.75
-50.39
-55.84
-61.71
-67.2
-71.21
-72.72
-71.11
-66.4
-59.12
-50.17
-40.46
-30.71
-21.45
-13.03
-5.72
0.28
4.94
8.4
10.97
13.02
14.79
16.37
17.6
18.27
18.16
17.2
15.5
13.38
11.26
9.56
8.56
8.26
8.44
8.73
8.77
8.31
7.35
6.07
4.78
3.92
3.92
5.23
8.05
12.25
17.27
22.28
26.47
29.47
31.58
33.7
36.87
41.72
48.15
55.23
61.61
66.1
68.14
68.01
66.65
65.17
64.5
65.06
66.75
69.19
71.86
74.32
76.23
77.21
76.88
74.81
70.67
64.48
56.57
47.62
38.44
29.86
22.49
16.7
12.56
9.73
7.65
5.55
2.81
-0.91
-5.51
-10.58
-15.63
-20.2
-23.95
-26.44
-27.18
-25.58
-21.32
-14.61
-6.39
1.86
8.68
13.12
15.13
15.51
15.57
16.52
19.09
23.34
28.7
34.22
38.95
42.17
43.53
42.97
40.61
36.47
30.52
22.66
12.91
1.41
-11.69
-26.37
-42.9
-61.53
-82.07
-103.4
-123.45
-139.75
-150.46
-155.1
-154.75
-151.35
-146.7
-141.63
-135.88
-128.66
-119.44
-108.59
-97.25
-86.77
-78.08
-71.33
-66.05
-61.54
-57.31
-53.23
-49.37
-45.7
-41.94
-37.58
-32.11
-25.35
-17.62
-9.73
-2.65
2.75
6.12
7.61
7.77
7.25
6.51
5.7
4.66
3.07
0.66
-2.73
-7.11
-12.35
-18.2
-24.29
-30.09
-34.94
-38.14
-39.1
-37.46
-33.26
-26.94
-19.25
-11.13
-3.39
3.41
9.06
13.7
17.62
21.08
24.15
26.74
28.63
29.68
29.94
29.77
29.65
30.12
31.56
34.1
37.64
41.87
46.43
50.96
55.2
59.05
62.56
65.92
69.45
73.56
78.51
84.19
89.99
94.92
98.13
99.55
100.25
102.31
108.0
118.71
134.12
152.1
169.43
182.85
189.98
189.71
182.1
168.09
149.3
127.94
106.76
88.53
75.2
67.18
63.14
60.64
57.36
52.2
45.65
39.19
34.11
30.5
27.16
22.34
14.91
5.11
-5.47
-14.75
-21.2
-24.54
-25.64
-25.9
-26.47
-27.91
-30.14
-32.81
-35.59
-38.36
-41.2
-44.24
-47.58
-51.17
-54.69
-57.62
-59.27
-59.04
-56.55
-51.96
-45.92
-39.56
-34.15
-30.74
-29.88
-31.4
-34.47
-37.96
-40.9
-42.83
-43.94
-44.75
-45.74
-46.99
-48.16
-48.87
-48.97
-48.78
-48.89
-49.79
-51.54
-53.71
-55.62
-56.66
-56.58
-55.57
-54.07
-52.55
-51.29
-50.31
-49.4
-48.25
-46.58
-44.36
-41.76
-39.14
-36.98
-35.62
-35.24
-35.78
-37.02
-38.64
-40.24
-41.34
-41.43
-40.09
-37.17
-32.89
-27.88
-22.94
-18.74
-15.58
-13.32
-11.43
-9.34
-6.59
-3.07
0.98
5.04
8.55
11.11
12.71
13.8
15.23
17.98
22.89
30.37
40.37
52.4
65.76
79.66
93.35
106.24
117.98
128.35
137.19
144.14
148.53
149.5
146.29
138.68
127.22
113.18
98.17
83.72
70.92
60.33
52.03
45.76
40.91
36.75
32.59
27.96
22.75
17.09
11.21
5.29
-0.55
-6.16
-11.26
-15.56
-18.97
-21.75
-24.5
-27.93
-32.42
-37.88
-43.64
-48.83
-52.64
-54.63
-54.79
-53.5
-51.49
-49.57
-48.51
-48.77
-50.42
-53.13
-56.32
-59.35
-61.68
-63.0
-63.11
-61.97
-59.72
-56.67
-53.34
-50.37
-48.33
-47.54
-48.01
-49.51
-51.74
-54.43
-57.39
-60.41
-63.21
-65.41
-66.64
-66.67
-65.45
-63.07
-59.73
-55.69
-51.32
-47.16
-43.82
-41.84
-41.5
-42.66
-44.88
-47.63
-50.59
-53.82
-57.64
-62.47
-68.52
-75.75
-83.79
-92.1
-100.07
-107.0
-112.2
-114.98
-114.77
-111.32
-104.8
-95.82
-85.25
-73.88
-62.02
-49.38
-35.19
-18.65
0.56
22.09
44.94
67.82
89.55
109.33
126.63
140.99
151.9
158.87
161.69
160.64
156.43
149.89
141.55
131.41
119.12
104.41
87.61
69.78
52.44
37.05
24.49
14.82
7.5
1.76
-3.05
-7.28
-11.06
-14.48
-17.72
-21.09
-24.92
-29.42
-34.57
-40.19
-46.02
-51.76
-57.2
-62.17
-66.57
-70.3
-73.32
-75.58
-77.06
-77.77
-77.71
-76.87
-75.15
-72.4
-68.26
-62.37
-54.38
-44.31
-32.66
-20.55
-9.42
-0.64
5.0
7.62
8.14
8.04
8.87
11.84
17.66
26.49
37.93
51.18
65.04
78.17
89.3
97.57
102.54
104.25
103.01
99.28
93.69
87.0
80.15
74.13
69.53
66.29
63.44
59.44
52.69
42.2
28.04
11.29
-6.31
-23.0
-37.55
-49.55
-59.4
-68.11
-76.92
-86.9
-98.67
-112.17
-126.67
-140.88
-153.39
-163.09
-169.63
-173.48
-175.83
-178.06
-181.24
-185.59
-190.23
-193.33
-192.61
-186.11
-172.95
-153.71
-130.34
-105.58
-82.06
-61.62
-44.95
-31.69
-21.0
-11.98
-4.06
2.96
9.08
14.33
18.94
23.2
27.35
31.42
35.11
37.86
39.17
38.78
36.93
34.3
31.71
29.78
28.71
28.23
27.87
27.26
26.42
25.73
25.77
26.95
29.28
32.15
34.62
35.64
34.48
31.0
25.69
19.54
13.64
8.82
5.38
2.94
0.67
-2.42
-6.97
-13.02
-19.75
-25.87
-29.89
-30.68
-27.8
-21.57
-12.94
-3.27
5.99
13.71
19.44
23.83
28.58
35.97
47.98
65.47
87.75
112.88
138.4
162.12
182.57
198.88
210.63
217.81
220.81
220.59
218.36
215.18
211.44
206.73
200.14
190.76
178.15
162.37
143.84
123.08
100.73
77.66
55.07
34.24
16.14
1.02
-11.62
-22.73
-33.11
-43.14
-52.74
-61.58
-69.42
-76.32
-82.62
-88.76
-95.08
-101.55
-107.77
-112.97
-116.2
-116.67
-114.07
-108.84
-102.15
-95.57
-90.56
-87.89
-87.38
-88.13
-89.1
-89.75
-90.47
-92.4
-96.93
-105.09
-117.02
-131.79
-147.46
-161.31
-170.27
-171.7
-164.3
-148.91
-128.57
-107.75
-90.84
-80.5
-76.77
-77.27
-78.46
-77.18
-71.8
-62.53
-50.83
-38.59
-27.26
-17.41
-8.88
-1.13
6.33
13.5
19.87
24.65
27.22
27.56
26.34
24.6
23.12
22.04
20.77
18.48
14.68
9.64
4.36
0.12
-2.18
-2.34
-0.78
1.72
4.49
7.19
9.86
12.66
15.72
19.03
22.41
25.62
28.35
30.41
31.74
32.49
32.99
33.58
34.38
35.24
35.69
35.25
33.69
31.1
27.86
24.44
21.08
17.73
14.04
9.54
3.9
-2.86
-10.24
-17.22
-22.53
-24.92
-23.71
-19.06
-12.13
-4.85
0.67
2.73
0.52
-5.71
-14.79
-24.97
-34.34
-41.22
-44.39
-43.25
-37.93
-29.19
-18.29
-6.65
4.49
14.44
23.18
31.28
39.53
48.45
57.96
67.4
75.78
82.31
86.7
89.26
90.66
91.53
92.24
92.81
93.17
93.31
93.44
93.77
94.35
94.93
95.01
94.14
92.21
89.48
86.51
83.82
81.6
79.64
77.52
74.81
71.45
67.68
63.91
60.46
57.34
54.28
50.87
46.87
42.35
37.7
33.46
29.96
27.2
24.8
22.24
19.16
15.62
12.09
9.24
7.59
7.2
7.7
8.51
9.21
9.8
10.65
12.29
14.99
18.57
22.4
25.6
27.25
26.65
23.42
17.74
10.62
4.03
0.62
3.1
13.21
30.94
54.15
79.04
101.29
117.28
125.12
124.86
118.05
106.84
93.2
78.55
63.8
49.7
37.13
27.04
20.24
17.04
16.99
19.06
21.98
24.7
26.61
27.46
27.15
25.44
21.99
16.48
8.91
-0.19
-9.8
-18.71
-25.91
-30.94
-33.97
-35.69
-36.94
-38.44
-40.53
-43.22
-46.17
-48.83
-50.47
-50.48
-48.57
-45.11
-41.07
-37.78
-36.33
-37.12
-39.68
-42.92
-45.72
-47.34
-47.67
-47.08
-46.12
-45.31
-44.91
-45.04
-45.66
-46.75
-48.25
-50.11
-52.27
-54.51
-56.44
-57.5
-57.31
-55.8
-53.42
-50.88
-48.73
-46.99
-45.07
-42.2
-37.96
-32.56
-26.69
-20.9
-15.06
-8.26
0.7
12.73
27.84
45.23
63.66
81.97
99.23
114.51
126.75
134.66
137.08
133.36
123.57
108.29
88.19
63.79
35.69
5.07
-25.96
-54.4
-77.14
-91.93
-98.17
-96.99
-90.71
-81.84
-72.28
-63.03
-54.29
-45.99
-38.12
-30.87
-24.51
-18.95
-13.62
-7.48
0.57
11.22
24.22
38.38
51.81
62.71
69.95
73.55
74.5
74.31
74.3
75.15
76.76
78.49
79.65
79.8
78.97
77.46
75.61
73.49
70.87
67.27
62.22
55.6
47.72
39.28
31.2
24.22
18.72
14.56
11.21
8.0
4.38
0.18
-4.44
-9.05
-13.23
-16.74
-19.6
-22.01
-24.25
-26.45
-28.63
-30.7
-32.6
-34.31
-35.89
-37.47
-39.15
-40.99
-43.05
-45.34
-47.79
-50.29
-52.67
-54.79
-56.68
-58.51
-60.62
-63.38
-67.02
-71.55
-76.69
-81.85
-86.24
-88.93
-89.06
-86.08
-79.93
-71.08
-60.44
-49.1
-38.06
-27.99
-19.18
-11.59
-5.03
0.72
5.87
10.47
14.51
17.86
20.41
22.07
22.88
22.95
22.5
21.77
21.02
20.52
20.49
21.03
22.14
23.63
25.21
26.58
27.51
27.89
27.73
27.12
26.19
25.08
23.92
22.8
21.76
20.79
19.84
18.85
17.78
16.62
15.36
14.04
12.74
11.56
10.62
10.02
9.7
9.51
9.27
8.79
8.0
6.98
5.84
4.76
3.8
2.99
2.27
1.55
0.7
-0.36
-1.68
-3.25
-4.98
-6.75
-8.45
-10.03
-11.54
-13.05
-14.64
-16.31
-17.99
-19.51
-20.74
-21.62
-22.2
-22.7
-23.36
-24.49
-26.35
-29.03
-32.33
-35.74
-38.32
-38.99
-36.73
-31.02
-21.99
-10.47
2.31
15.07
26.87
37.22
45.94
52.95
58.11
61.22
62.1
60.7
57.13
51.52
44.03
34.8
24.22
13.0
2.27
-6.76
-13.08
-16.24
-16.45
-14.41
-10.97
-6.89
-2.69
1.38
5.29
9.15
13.29
18.17
24.25
31.8
40.67
50.15
59.08
66.05
69.72
69.17
64.17
55.32
44.0
32.01
21.07
12.29
5.81
0.92
-3.53
-8.59
-14.79
-22.0
-29.62
-36.92
-43.25
-48.2
-51.57
-53.33
-53.63
-52.78
-51.14
-48.97
-46.34
-43.06
-38.89
-33.72
-27.82
-21.71
-16.13
-11.69
-8.71
-7.18
-6.89
-7.61
-9.22
-11.73
-15.23
-19.75
-25.24
-31.42
-37.86
-43.94
-48.88
-51.89
-52.32
-49.89
-44.8
-37.71
-29.55
-21.28
-13.62
-6.93
-1.27
3.47
7.43
10.71
13.41
15.62
17.45
19.02
20.39
21.58
22.55
23.27
23.72
23.95
24.02
24.04
24.12
24.32
24.62
24.94
25.14
25.09
24.77
24.22
23.59
23.02
22.55
22.11
21.49
20.47
18.91
16.81
14.31
11.66
9.05
6.6
4.36
2.31
0.46
-1.16
-2.55
-3.75
-4.85
-5.91
-6.99
-8.05
-9.04
-9.94
-10.78
-11.63
-12.56
-13.59
-14.66
-15.7
-16.66
-17.55
-18.4
-19.31
-20.39
-21.75
-23.47
-25.57
-28.02
-30.73
-33.57
-36.46
-39.38
-42.42
-45.78
-49.71
-54.35
-59.57
-64.86
-69.33
-71.91
-71.63
-68.0
-61.17
-51.91
-41.36
-30.72
-20.86
-12.23
-4.87
1.44
6.98
11.96
16.45
20.42
23.84
26.7
28.99
30.75
31.98
32.66
32.78
32.42
31.71
30.87
30.1
29.54
29.17
28.88
28.51
27.9
27.02
25.88
24.57
23.16
21.68
20.12
18.49
16.81
15.13
13.53
12.05
10.68
9.41
8.17
6.89
5.51
4.0
2.35
0.65
-0.97
-2.31
-3.18
-3.45
-3.13
-2.43
-1.67
-1.18
-1.13
-1.51
-2.11
-2.67
-3.0
-3.09
-3.1
-3.22
-3.56
-4.17
-5.0
-6.07
-7.5
-9.44
-12.0
-15.16
-18.76
-22.59
-26.48
-30.33
-34.12
-37.78
-41.2
-44.25
-46.9
-49.32
-51.83
-54.82
-58.49
-62.69
-66.78
-69.81
-70.74
-68.8
-63.75
-55.93
-46.12
-35.35
-24.54
-14.4
-5.31
2.58
9.35
15.16
20.25
24.81
28.98
32.72
35.91
38.41
40.1
41.0
41.28
41.14
40.84
40.63
40.7
41.19
42.15
43.51
45.09
46.65
47.98
49.01
49.8
50.53
51.44
52.73
54.5
56.7
59.11
61.37
63.03
63.65
62.86
60.49
56.64
51.68
46.31
41.39
37.72
35.91
36.09
37.91
40.62
43.24
44.78
44.41
41.64
36.32
28.68
19.35
9.21
-0.73
-9.58
-16.89
-22.88
-28.37
-34.49
-42.16
-51.66
-62.44
-73.28
-82.79
-89.92
-94.24
-95.95
-95.58
-93.6
-90.3
-85.78
-80.14
-73.7
-67.05
-60.9
-55.85
-52.22
-49.83
-48.12
-46.32
-43.77
-40.23
-35.99
-31.7
-28.15
-25.87
-25.01
-25.37
-26.61
-28.48
-30.84
-33.63
-36.66
-39.69
-42.45
-44.84
-47.11
-49.73
-53.11
-57.25
-61.53
-64.7
-65.31
-62.18
-54.86
-43.9
-30.64
-16.88
-4.33
5.79
12.95
17.23
19.12
19.3
18.45
17.26
16.34
16.22
17.21
19.32
22.25
25.48
28.46
30.78
32.36
33.35
34.04
34.67
35.34
36.01
36.56
36.96
37.23
37.44
37.59
37.59
37.28
36.55
35.39
33.91
32.26
30.55
28.75
26.73
24.33
21.47
18.14
14.42
10.39
6.14
1.68
-2.91
-7.56
-12.16
-16.59
-20.74
-24.61
-28.3
-32.02
-35.98
-40.26
-44.65
-48.57
-51.19
-51.65
-49.4
-44.43
-37.28
-28.84
-20.03
-11.56
-3.81
3.16
9.41
15.09
20.27
24.96
29.13
32.74
35.73
38.08
39.79
40.89
41.39
41.33
40.82
40.06
39.29
38.79
38.68
38.92
39.29
39.56
39.61
39.47
39.26
39.05
38.74
38.15
37.03
35.31
33.07
30.6
28.19
26.06
24.3
22.97
22.12
21.8
22.07
22.87
24.03
25.24
26.15
26.44
25.94
24.59
22.49
19.83
16.8
13.62
10.43
7.35
4.43
1.69
-0.81
-2.97
-4.65
-5.69
-6.02
-5.63
-4.72
-3.65
-2.94
-3.12
-4.61
-7.58
-11.86
-16.97
-22.25
-27.09
-31.11
-34.23
-36.7
-38.97
-41.53
-44.67
-48.44
-52.51
-56.27
-58.91
-59.69
-58.14
-54.2
-48.26
-41.05
-33.4
-26.03
-19.4
-13.64
-8.64
-4.11
0.23
4.54
8.78
12.7
15.9
18.04
18.94
18.71
17.76
16.6
15.68
15.24
15.32
15.85
16.71
17.89
19.37
21.07
22.76
24.09
24.7
24.34
23.0
20.9
18.42
15.89
13.53
11.36
9.3
7.26
5.26
3.44
2.03
1.15
0.75
0.58
0.3
-0.35
-1.44
-2.87
-4.43
-5.95
-7.37
-8.73
-10.04
-11.27
-12.32
-13.1
-13.64
-14.07
-14.69
-15.77
-17.47
-19.73
-22.28
-24.77
-26.88
-28.47
-29.61
-30.53
-31.53
-32.88
-34.8
-37.35
-40.41
-43.63
-46.39
-47.91
-47.42
-44.46
-39.03
-31.65
-23.18
-14.52
-6.37
0.88
7.14
12.48
17.01
20.82
23.96
26.47
28.38
29.73
30.55
30.86
30.73
30.28
29.61
28.86
28.12
27.55
27.25
27.32
27.74
28.37
28.92
29.14
28.87
28.13
27.15
26.11
25.17
24.3
23.35
22.19
20.77
19.17
17.51
15.92
14.41
13.0
11.63
10.28
8.92
7.54
6.15
4.8
3.55
2.48
1.6
0.87
0.18
-0.56
-1.42
-2.43
-3.57
-4.83
-6.24
-7.82
-9.6
-11.59
-13.78
-16.19
-18.85
-21.77
-24.87
-27.99
-30.94
-33.58
-35.99
-38.45
-41.37
-45.01
-49.35
-53.9
-57.82
-60.13
-60.07
-57.27
-51.92
-44.57
-36.0
-26.99
-18.2
-10.09
-2.92
3.26
8.61
13.36
17.81
22.11
26.24
29.98
33.07
35.29
36.61
37.2
37.3
37.19
37.02
36.88
36.78
36.7
36.68
36.73
36.85
36.98
36.99
36.75
36.16
35.23
34.04
32.73
31.38
30.05
28.69
27.27
25.79
24.34
23.04
22.06
21.47
21.25
21.26
21.28
21.13
20.68
19.93
19.0
18.07
17.27
16.67
16.2
15.76
15.26
14.69
14.16
13.83
13.82
14.15
14.72
15.36
15.87
16.16
16.23
16.23
16.35
16.83
17.75
19.09
20.64
22.08
23.07
23.43
23.2
22.7
22.42
22.88
24.34
26.69
29.44
31.81
33.03
32.69
30.92
28.39
26.11
25.0
25.57
27.79
31.14
34.92
38.45
41.28
43.09
43.61
42.61
39.86
35.27
28.9
20.97
11.7
1.35
-9.75
-21.03
-31.7
-40.94
-48.19
-53.46
-57.27
-60.39
-63.42
-66.47
-69.24
-71.31
-72.58
-73.41
-74.55
-76.71
-80.17
-84.51
-88.73
-91.66
-92.43
-90.86
-87.5
-83.47
-79.99
-77.99
-77.85
-79.46
-82.41
-86.25
-90.65
-95.28
-99.68
-103.2
-105.1
-104.81
-102.22
-97.75
-92.09
-85.89
-79.37
-72.33
-64.25
-54.66
-43.45
-30.97
-17.95
-5.2
6.54
16.73
25.08
31.57
36.33
39.61
41.65
42.65
42.75
42.07
40.72
38.85
36.62
34.1
31.23
27.91
24.07
19.85
15.6
11.84
9.06
7.66
7.78
9.34
12.12
15.79
20.01
24.42
28.67
32.52
35.79
38.46
40.59
42.32
43.72
44.79
45.38
45.32
44.48
42.87
40.67
38.22
35.9
34.0
32.61
31.6
30.71
29.73
28.58
27.38
26.32
25.5
24.91
24.37
23.68
22.79
21.8
20.94
20.33
19.95
19.59
19.03
18.18
17.13
16.13
15.4
15.05
14.97
14.98
14.85
14.47
13.83
13.02
12.13
11.26
10.49
9.83
9.25
8.69
8.06
7.33
6.5
5.61
4.69
3.77
2.8
1.67
0.29
-1.42
-3.45
-5.74
-8.19
-10.72
-13.25
-15.7
-18.05
-20.29
-22.48
-24.68
-27.06
-29.73
-32.76
-36.02
-39.16
-41.66
-42.93
-42.48
-40.1
-35.92
-30.4
-24.18
-17.86
-11.9
-6.55
-1.81
2.43
6.3
9.9
13.28
16.39
19.13
21.37
22.99
23.92
24.15
23.77
22.93
21.82
20.63
19.54
18.69
18.2
18.15
18.51
19.19
19.98
20.66
21.02
20.95
20.46
19.67
18.77
17.92
17.23
16.7
16.22
15.65
14.87
13.88
12.8
11.85
11.19
10.88
10.82
10.83
10.72
10.4
9.87
9.2
8.47
7.72
6.97
6.28
5.69
5.2
4.76
4.2
3.36
2.13
0.57
-1.12
-2.65
-3.84
-4.65
-5.28
-6.02
-7.09
-8.61
-10.51
-12.64
-14.81
-16.9
-18.88
-20.8
-22.71
-24.71
-26.91
-29.39
-32.2
-35.24
-38.21
-40.64
-41.93
-41.6
-39.41
-35.49
-30.29
-24.44
-18.58
-13.16
-8.41
-4.32
-0.76
2.44
5.41
8.22
10.89
13.39
15.66
17.64
19.23
20.31
20.82
20.75
20.21
19.4
18.58
17.96
17.68
17.75
18.1
18.58
19.05
19.37
19.42
19.16
18.56
17.7
16.7
15.71
14.87
14.21
13.72
13.26
12.69
11.89
10.83
9.59
8.33
7.23
6.42
5.92
5.66
5.5
5.31
5.0
4.54
3.93
3.15
2.16
0.9
-0.64
-2.41
-4.28
-6.08
-7.69
-9.02
-10.1
-11.04
-11.91
-12.78
-13.68
-14.63
-15.67
-16.91
-18.43
-20.39
-22.92
-26.13
-30.08
-34.66
-39.56
-44.18
-47.75
-49.52
-49.0
-46.16
-41.44
-35.56
-29.26
-23.11
-17.4
-12.21
-7.49
-3.22
0.64
4.06
7.01
9.46
11.36
12.66
13.36
13.55
13.38
13.14
13.06
13.33
13.98
14.91
15.93
16.83
17.44
17.68
17.6
17.29
16.9
16.5
16.14
15.81
15.49
15.14
14.74
14.19
13.39
12.24
10.73
8.99
7.31
5.98
5.21
4.97
5.03
5.05
4.74
4.07
3.21
2.5
2.13
2.07
2.01
1.51
0.24
-1.85
-4.45
-7.04
-9.18
-10.66
-11.58
-12.28
-13.1
-14.23
-15.7
-17.4
-19.2
-21.02
-22.83
-24.61
-26.37
-28.17
-30.14
-32.49
-35.47
-39.2
-43.56
-48.1
-52.02
-54.44
-54.64
-52.28
-47.58
-41.15
-33.86
-26.46
-19.48
-13.16
-7.47
-2.33
2.34
6.59
10.47
13.96
17.07
19.7
21.76
23.16
23.9
24.13
24.07
23.97
23.99
24.23
24.65
25.2
25.8
26.36
26.83
27.16
27.3
27.21
26.89
26.42
25.88
