BVP
-3.69
-5.53
-7.82
-10.45
-13.32
-16.38
-19.6
-22.9
-26.05
-28.76
-30.72
-31.74
-31.79
-31.0
-29.52
-27.52
-25.2
-22.75
-20.4
-18.37
-16.84
-15.87
-15.48
-15.66
-16.39
-17.73
-19.72
-22.36
-25.55
-29.09
-32.75
-36.35
-39.76
-42.96
-46.06
-49.19
-52.53
-56.15
-60.0
-63.96
-67.85
-71.61
-75.38
-79.51
-84.47
-90.59
-97.89
-105.94
-114.0
-121.33
-127.49
-132.56
-137.19
-142.23
-148.3
-155.47
-163.06
-169.85
-174.49
-176.07
-174.56
-170.92
-166.77
-163.61
-162.01
-160.99
-158.18
-150.41
-134.78
-109.68
-75.31
-33.63
11.83
56.32
94.5
121.56
134.98
135.66
128.02
118.32
112.03
111.5
115.42
120.31
122.87
121.99
118.72
114.97
111.76
108.35
103.02
94.78
84.68
76.01
73.38
81.08
101.42
133.48
172.37
209.89
236.41
243.7
227.46
188.69
133.21
69.71
7.48
-45.52
-83.72
-104.21
-106.78
-93.67
-69.1
-38.38
-6.92
20.77
41.54
53.62
56.26
49.7
35.24
15.24
-7.13
-28.54
-46.17
-58.17
-63.62
-62.49
-55.24
-42.79
-26.37
-7.44
12.39
31.45
48.1
61.01
69.41
73.42
73.96
72.5
70.62
69.42
69.3
70.03
70.92
71.21
70.37
68.28
65.25
61.92
59.08
57.37
57.02
57.73
58.89
59.84
60.17
59.82
58.95
57.75
56.3
54.61
52.62
50.26
47.52
44.36
40.79
36.83
32.57
28.14
23.66
19.16
14.55
9.75
4.81
-0.1
-4.7
-8.81
-12.47
-15.9
-19.43
-23.2
-27.11
-30.82
-33.93
-36.1
-37.13
-36.98
-35.62
-33.03
-29.18
-24.18
-18.33
-12.12
-6.16
-0.96
3.18
6.23
8.4
9.97
11.2
12.21
13.0
13.55
13.91
14.22
14.64
15.34
16.31
17.38
18.31
18.87
18.92
18.46
17.61
16.52
15.33
14.18
13.14
12.23
11.37
10.45
9.33
7.98
6.39
4.66
2.84
0.97
-0.94
-2.88
-4.79
-6.67
-8.57
-10.66
-13.08
-15.94
-19.12
-22.34
-25.35
-28.02
-30.5
-33.18
-36.46
-40.53
-45.14
-49.58
-52.79
-53.69
-51.56
-46.26
-38.31
-28.7
-18.62
-9.07
-0.74
6.11
11.44
15.33
17.89
19.27
19.73
19.65
19.45
19.52
20.11
21.27
22.85
24.57
26.13
27.31
28.0
28.22
28.1
27.75
27.2
26.44
25.39
23.98
22.14
19.9
17.29
14.41
11.35
8.21
5.05
1.88
-1.3
-4.48
-7.54
-10.31
-12.57
-14.22
-15.37
-16.38
-17.79
-20.11
-23.65
-28.31
-33.57
-38.51
-42.01
-43.04
-40.92
-35.6
-27.59
-17.89
-7.69
1.97
10.39
17.22
22.43
26.14
28.49
29.62
29.71
28.97
27.73
26.37
25.26
24.62
24.45
24.62
24.85
24.97
24.92
24.84
24.87
25.08
25.4
25.54
25.26
24.37
22.89
20.99
18.94
16.93
15.04
13.2
11.22
8.92
6.13
2.81
-0.96
-4.96
-8.91
-12.61
-15.98
-19.09
-22.13
-25.38
-29.02
-33.23
-37.97
-42.91
-47.43
-50.56
-51.31
-48.96
-43.38
-35.19
-25.54
-15.79
-7.03
0.07
5.36
8.92
10.94
11.57
10.98
9.4
7.18
4.71
2.38
0.43
-1.1
-2.31
-3.44
-4.72
-6.32
-8.26
-10.52
-13.06
-15.89
-19.11
-22.88
-27.27
-32.19
-37.43
-42.67
-47.71
-52.56
-57.35
-62.27
-67.4
-72.59
-77.57
-82.07
-85.97
-89.45
-92.89
-96.74
-101.27
-106.39
-111.53
-115.73
-117.78
-116.5
-111.1
-101.4
-87.95
-71.95
-54.92
-38.41
-23.8
-11.99
-3.38
2.18
5.3
7.02
8.39
10.25
12.88
15.97
18.78
20.57
21.01
20.35
19.29
18.45
18.0
17.4
15.69
12.01
6.28
-0.55
-6.95
-11.39
-12.98
-11.67
-7.62
-0.68
9.69
23.52
39.31
53.83
63.23
64.98
59.46
49.92
40.91
35.89
35.65
38.33
40.85
40.58
36.33
28.19
16.93
3.48
-10.84
-23.98
-33.14
-35.35
-28.32
-11.49
13.74
43.68
72.43
92.62
97.31
82.9
51.65
12.01
-24.12
-46.08
-48.98
-35.29
-12.67
10.55
29.52
44.27
57.8
72.66
88.42
101.69
108.38
106.55
97.53
85.06
73.01
63.42
56.02
49.12
40.95
30.92
19.88
9.52
1.49
-3.42
-5.58
-6.35
-7.48
-10.4
-15.53
-22.01
-27.91
-31.01
-29.73
-23.81
-14.47
-3.82
6.05
13.87
19.51
23.62
27.02
30.17
32.99
35.05
35.94
35.53
34.12
32.2
30.31
28.79
27.77
27.19
26.89
26.74
26.67
26.59
26.48
26.23
25.73
24.93
23.79
22.33
20.59
18.61
16.36
13.82
10.89
7.55
3.83
-0.12
-4.11
-7.96
-11.59
-15.13
-18.9
-23.26
-28.38
-34.05
-39.52
-43.63
-45.11
-42.98
-36.93
-27.37
-15.3
-1.99
11.35
23.78
34.7
43.81
51.01
56.4
60.22
62.85
64.7
66.12
67.37
68.56
69.75
71.1
72.81
75.1
78.09
81.59
84.97
87.26
87.32
84.1
77.0
65.99
51.76
35.64
19.4
4.94
-6.11
-12.75
-14.9
-13.37
-9.77
-5.91
-3.43
-3.28
-5.6
-9.84
-15.14
-20.7
-26.04
-31.05
-35.85
-40.54
-45.0
-48.79
-51.23
-51.55
-49.2
-43.93
-35.98
-25.97
-14.81
-3.51
7.03
16.05
23.0
27.57
29.69
29.5
27.44
24.13
20.37
16.86
14.14
12.42
11.59
11.36
11.39
11.47
11.57
11.73
12.01
12.35
12.56
12.37
11.57
10.07
7.97
5.48
2.86
0.36
-1.88
-3.81
-5.53
-7.2
-9.06
-11.32
-14.12
-17.42
-21.07
-24.83
-28.51
-31.96
-35.16
-38.12
-40.97
-43.86
-47.06
-50.88
-55.53
-60.92
-66.43
-70.97
-73.18
-71.9
-66.58
-57.51
-45.75
-32.72
-19.85
-8.22
1.56
9.19
14.63
17.94
19.3
19.07
17.78
16.1
14.58
13.63
13.36
13.64
14.24
14.96
15.7
16.5
17.38
18.26
18.97
19.21
18.67
17.21
14.94
12.2
9.45
7.05
5.1
3.42
1.62
-0.63
-3.46
-6.78
-10.27
-13.64
-16.72
-19.51
-22.2
-25.02
-28.27
-32.17
-36.86
-42.23
-47.82
-52.75
-55.93
-56.29
-53.2
-46.69
-37.42
-26.5
-15.08
-4.1
5.81
14.32
21.18
26.19
29.16
30.08
29.19
27.05
24.38
21.94
20.26
19.53
19.65
20.29
21.05
21.66
21.97
22.0
21.83
21.53
21.06
20.34
19.25
17.74
15.89
13.84
11.78
9.8
7.89
5.91
3.68
1.18
-1.48
-4.07
-6.41
-8.49
-10.55
-12.98
-16.21
-20.49
-25.92
-32.36
-39.48
-46.71
-53.17
-57.74
-59.3
-57.12
-51.11
-41.99
-31.11
-19.92
-9.69
-1.16
5.39
9.93
12.58
13.5
12.93
11.27
9.02
6.75
4.94
3.89
3.69
4.17
4.99
5.79
6.26
6.25
5.81
5.09
4.18
3.03
1.47
-0.7
-3.51
-6.73
-10.02
-13.01
-15.63
-18.09
-20.78
-24.01
-27.82
-31.83
-35.39
-37.92
-39.12
-39.15
-38.58
-38.2
-38.63
-40.15
-42.53
-45.11
-46.97
-47.2
-45.12
-40.42
-33.2
-23.85
-12.87
-0.61
12.78
27.28
42.86
59.24
75.68
91.06
104.05
113.49
118.81
120.29
119.02
116.59
114.43
113.26
112.77
111.7
108.52
102.14
92.62
81.27
70.22
61.69
57.09
56.48
58.39
60.23
59.0
52.23
38.75
19.22
-4.22
-28.59
-51.01
-69.62
-83.92
-94.58
-102.97
-110.59
-118.74
-128.44
-140.45
-155.1
-172.04
-190.12
-207.53
-222.37
-233.46
-240.8
-245.71
-250.12
-255.67
-262.83
-270.63
-277.14
-280.28
-278.77
-272.59
-262.79
-251.03
-238.83
-227.2
-216.58
-207.09
-198.84
-191.98
-186.61
-182.5
-178.99
-175.14
-170.15
-163.72
-156.27
-148.69
-141.89
-136.26
-131.47
-126.67
-120.91
-113.62
-104.73
-94.51
-83.3
-71.22
-58.13
-43.85
-28.46
-12.5
3.1
17.2
28.72
36.86
41.21
41.88
39.54
35.4
31.03
27.93
27.09
28.63
31.73
34.99
36.96
36.61
33.65
28.42
21.67
14.37
7.58
2.42
-0.04
1.05
6.04
14.74
26.57
40.88
57.33
75.83
96.23
117.76
138.84
157.24
170.75
178.02
179.07
175.24
168.68
161.59
155.7
151.96
150.63
151.52
154.13
157.78
161.68
164.94
166.75
166.54
164.01
159.24
152.73
145.26
137.75
131.02
125.55
121.24
117.45
113.15
107.31
99.3
89.2
77.87
66.71
57.26
50.65
47.18
46.15
46.08
45.17
41.88
35.49
26.34
15.74
5.62
-2.04
-5.82
-5.23
-0.81
6.17
14.09
21.51
27.48
31.6
33.98
35.02
35.18
34.89
34.46
34.16
34.27
35.09
36.98
40.27
45.26
52.11
60.81
71.17
82.88
95.49
108.54
121.52
133.91
145.13
154.67
162.16
167.42
170.37
170.78
168.06
161.11
148.6
129.54
103.94
73.18
39.8
6.8
-23.31
-49.11
-70.39
-87.61
-101.34
-111.82
-118.82
-121.84
-120.38
-114.12
-102.98
-87.19
-67.39
-44.75
-20.97
1.88
21.73
36.95
46.67
50.95
50.59
46.97
41.66
36.15
31.6
28.73
27.73
28.44
30.43
33.23
36.45
39.88
43.44
47.13
50.88
54.57
57.9
60.49
61.96
62.0
60.39
57.01
51.87
45.04
36.77
27.48
17.7
7.99
-1.23
-9.88
-18.19
-26.68
-35.98
-46.62
-58.85
-72.45
-86.62
-100.03
-110.9
-117.46
-118.38
-113.19
-102.45
-87.64
-70.68
-53.37
-36.98
-22.07
-8.76
3.03
13.24
21.65
27.94
32.03
34.17
35.02
35.39
36.0
37.22
39.09
41.4
43.95
46.63
49.45
52.48
55.65
58.73
61.34
63.01
63.33
62.11
59.37
55.4
50.57
45.28
39.79
34.24
28.6
22.84
16.95
10.98
5.04
-0.62
-5.54
-8.93
-9.8
-7.18
-0.51
10.1
23.76
39.11
54.78
69.73
83.4
95.59
106.11
114.64
120.67
123.72
123.59
120.53
115.25
108.71
101.92
95.69
90.4
86.1
82.51
79.26
76.07
72.9
69.96
67.59
66.09
65.49
65.58
65.96
66.3
66.47
66.67
67.34
68.99
71.93
76.15
81.14
85.88
88.85
88.13
81.66
67.77
45.83
16.87
-16.24
-49.29
-77.78
-98.22
-109.1
-111.15
-106.78
-99.12
-90.99
-84.4
-80.38
-79.24
-80.77
-84.42
-89.29
-94.19
-97.81
-99.08
-97.46
-93.02
-86.32
-78.13
-69.08
-59.55
-49.64
-39.37
-28.79
-18.2
-8.18
0.37
6.34
8.6
6.34
-0.75
-12.25
-27.14
-44.01
-61.44
-78.16
-93.18
-105.79
-115.56
-122.43
-126.86
-129.72
-131.98
-134.27
-136.41
-137.35
-135.41
-128.99
-117.2
-100.3
-79.68
-57.46
-35.91
-16.87
-1.44
10.05
17.84
22.52
24.64
24.77
23.36
20.88
17.82
14.57
11.32
7.93
4.02
-0.81
-6.64
-13.08
-19.37
-24.56
-28.0
-29.51
-29.46
-28.53
-27.42
-26.51
-25.84
-25.13
-23.97
-21.99
-19.0
-15.0
-10.21
-4.92
0.51
5.77
10.6
14.83
18.33
21.06
23.0
24.16
24.51
23.93
22.23
19.26
15.05
9.93
4.69
0.47
-1.4
0.2
5.85
15.42
28.02
42.27
56.59
69.58
80.21
87.89
92.39
93.75
92.21
88.1
81.95
74.42
66.23
57.96
49.96
42.26
34.63
26.81
18.67
10.44
2.48
-4.78
-11.15
-16.76
-21.96
-27.12
-32.36
-37.57
-42.44
-46.69
-50.19
-52.92
-54.87
-55.89
-55.68
-53.85
-50.15
-44.59
-37.47
-29.35
-20.88
-12.62
-4.98
1.8
7.66
12.6
16.71
20.11
23.04
25.85
28.99
33.04
38.54
45.98
55.71
67.89
82.5
99.26
117.62
136.74
155.5
172.77
187.54
199.15
207.28
211.82
212.59
209.3
201.58
189.27
172.71
152.84
130.95
108.43
86.36
65.4
45.89
28.02
11.99
-2.12
-14.46
-25.45
-35.7
-45.64
-55.31
-64.31
-72.08
-78.25
-82.97
-86.84
-90.65
-95.04
-100.24
-106.18
-112.77
-120.12
-128.52
-138.28
-149.24
-160.65
-171.28
-179.81
-185.4
-187.99
-188.35
-187.72
-187.28
-187.79
-189.3
-191.25
-192.6
-192.18
-189.01
-182.48
-172.5
-159.46
-144.13
-127.42
-110.3
-93.61
-77.96
-63.79
-51.32
-40.61
-31.69
-24.53
-19.09
-15.22
-12.62
-10.78
-9.18
-7.33
-5.04
-2.42
0.21
2.42
3.86
4.32
3.75
2.27
0.14
-2.32
-4.78
-7.04
-9.07
-11.04
-13.23
-15.95
-19.36
-23.48
-28.17
-33.11
-37.86
-42.0
-45.16
-47.21
-48.28
-48.79
-49.19
-49.78
-50.56
-51.24
-51.5
-51.17
-50.44
-49.83
-50.02
-51.57
-54.52
-58.31
-61.77
-63.41
-61.83
-56.15
-46.22
-32.73
-17.0
-0.67
14.68
27.74
37.66
44.09
47.07
46.98
44.46
40.2
34.92
29.23
23.64
18.59
14.45
11.49
9.89
9.68
10.73
12.7
15.13
17.48
19.31
20.28
20.35
19.65
18.41
16.87
15.14
13.18
10.9
8.2
5.07
1.63
-1.95
-5.52
-9.06
-12.63
-16.41
-20.57
-25.17
-30.16
-35.37
-40.66
-45.94
-51.27
-56.77
-62.64
-69.05
-76.25
-84.51
-94.03
-104.78
-116.17
-126.95
-135.41
-139.81
-139.01
-132.94
-122.64
-109.89
-96.66
-84.48
-74.25
-66.26
-60.5
-56.85
-55.19
-55.36
-57.0
-59.55
-62.3
-64.52
-65.65
-65.38
-63.65
-60.62
-56.48
-51.25
-44.79
-36.88
-27.44
-16.77
-5.74
4.49
12.76
18.34
21.14
21.67
20.67
18.79
16.36
13.48
10.11
6.4
2.68
-0.66
-3.35
-5.42
-7.26
-9.43
-12.48
-16.69
-21.97
-27.86
-33.79
-39.23
-43.97
-48.23
-52.66
-58.18
-65.64
-75.41
-87.03
-99.03
-109.08
-114.5
-113.01
-103.36
-85.75
-61.74
-33.84
-4.84
22.77
47.2
67.39
82.91
93.76
100.19
102.68
101.94
98.84
94.33
89.31
84.5
80.33
77.08
74.87
73.73
73.7
74.66
76.36
78.34
80.08
81.03
80.78
79.12
76.01
71.66
66.37
60.59
54.74
49.19
44.16
39.68
35.67
31.93
28.29
24.61
20.86
17.04
13.19
9.36
5.61
2.0
-1.52
-5.04
-8.82
-13.21
-18.65
-25.54
-33.98
-43.51
-52.87
-60.19
-63.28
-60.31
-50.38
-33.87
-12.41
11.67
35.95
58.46
77.96
93.87
105.98
114.35
119.16
120.77
119.82
117.13
113.54
109.67
105.78
101.78
97.44
92.65
87.49
82.16
76.7
70.81
63.93
55.51
45.38
33.98
22.27
11.43
2.37
-4.55
-9.59
-13.43
-16.92
-20.76
-25.31
-30.63
-36.43
-42.23
-47.48
-51.68
-54.51
-55.95
-56.29
-56.11
-55.94
-56.07
-56.22
-55.53
-52.68
-46.33
-35.68
-20.8
-2.81
16.4
34.63
50.0
61.38
68.49
71.85
72.3
70.67
67.61
63.64
59.25
55.1
51.98
50.54
51.11
53.43
56.86
60.58
64.04
67.03
69.7
72.24
74.61
76.45
77.22
76.43
73.92
69.91
64.91
59.42
53.78
48.0
41.96
35.47
28.48
21.13
13.7
6.46
-0.44
-7.04
-13.65
-20.72
-28.75
-38.04
-48.37
-58.95
-68.37
-74.87
-76.9
-73.47
-64.54
-50.93
-34.15
-15.99
1.79
17.66
30.39
39.12
43.56
44.05
41.58
37.6
33.63
30.85
29.86
30.65
32.75
35.57
38.57
41.4
43.86
45.89
47.46
48.53
49.02
48.8
47.76
45.82
43.07
39.77
36.3
33.03
30.1
27.41
24.55
21.1
16.76
11.55
5.8
0.01
-5.38
-10.18
-14.44
-18.54
-22.95
-28.15
-34.32
-41.27
-48.23
-53.94
-56.9
-55.72
-49.64
-38.81
-24.28
-7.75
8.98
24.38
37.51
47.95
55.58
60.45
62.61
62.33
60.15
56.91
53.63
51.24
50.38
51.36
54.14
58.56
64.32
70.9
77.58
83.48
87.8
90.05
90.18
88.39
84.92
79.88
73.3
65.41
56.89
48.79
42.28
38.11
36.37
36.47
37.49
38.54
39.1
38.97
38.19
36.75
34.46
30.89
25.45
17.72
7.75
-3.64
-14.91
-24.13
-29.66
-30.72
-27.66
-21.74
-14.55
-7.38
-0.91
4.75
9.67
13.8
16.86
18.61
19.14
19.03
19.2
20.56
23.72
28.8
35.49
43.38
52.13
61.65
71.98
83.23
95.4
108.27
121.38
134.07
145.68
155.7
163.95
170.64
176.24
181.29
186.1
190.58
194.25
196.46
196.55
194.0
188.48
179.91
168.43
154.49
138.85
122.47
106.39
91.4
77.75
65.16
52.94
40.42
27.46
14.68
3.33
-5.15
-9.8
-10.45
-7.82
-3.16
2.28
7.52
11.92
14.87
15.62
13.19
6.65
-4.45
-19.96
-39.12
-60.97
-84.63
-109.55
-135.33
-161.49
-187.21
-211.14
-231.58
-246.86
-255.76
-257.92
-253.96
-245.31
-233.8
-221.18
-208.82
-197.55
-187.8
-179.68
-172.9
-166.85
-160.47
-152.55
-142.12
-128.93
-113.64
-97.83
-83.44
-72.33
-65.81
-64.49
-68.23
-76.24
-87.0
-98.22
-107.09
-110.71
-106.9
-94.91
-75.68
-51.54
-25.41
0.06
23.06
42.64
58.25
69.38
75.32
75.39
69.33
57.61
41.48
22.58
2.57
-17.23
-35.87
-52.53
-66.33
-76.39
-82.14
-83.67
-82.07
-79.21
-77.3
-78.17
-82.73
-90.81
-101.33
-112.76
-123.45
-131.96
-137.14
-138.35
-135.56
-129.46
-121.36
-112.84
-105.24
-99.26
-94.85
-91.37
-88.09
-84.45
-80.3
-75.75
-71.03
-66.32
-61.8
-57.73
-54.51
-52.65
-52.49
-53.89
-56.1
-57.76
-57.31
-53.41
-45.44
-33.67
-19.22
-3.63
11.57
25.33
37.21
47.3
55.93
63.33
69.51
74.22
77.27
78.69
78.87
78.5
78.27
78.71
80.05
82.41
85.91
90.82
97.34
105.41
114.41
123.21
130.49
135.14
136.71
135.54
132.62
129.28
126.84
126.25
127.9
131.47
135.84
139.32
140.07
136.81
129.34
118.88
107.62
97.92
91.3
87.94
86.71
85.85
83.84
80.1
75.09
69.99
66.14
64.51
65.52
69.13
75.03
82.83
92.2
102.75
114.09
125.71
137.13
147.91
157.56
165.49
170.83
172.51
169.44
160.94
146.94
128.18
105.92
81.74
57.22
33.8
12.8
-4.78
-18.35
-28.02
-34.64
-39.57
-44.37
-50.24
-57.64
-66.34
-75.57
-84.46
-92.29
-98.7
-103.71
-107.71
-111.33
-115.3
-120.1
-125.83
-132.07
-137.97
-142.53
-144.88
-144.59
-141.71
-136.7
-130.18
-122.7
-114.63
-106.24
-97.83
-89.86
-82.86
-77.26
-73.25
-70.66
-69.01
-67.72
-66.29
-64.37
-61.8
-58.48
-54.32
-49.25
-43.2
-36.09
-27.91
-18.6
-8.15
3.41
15.91
29.03
42.27
54.9
66.0
74.62
79.96
81.67
80.11
76.3
71.65
67.43
64.33
62.19
60.2
57.34
52.82
46.37
38.31
29.45
20.78
13.32
7.86
4.71
3.62
3.83
4.36
4.39
3.41
1.22
-2.39
-7.95
-16.33
-28.39
-44.25
-62.76
-81.58
-97.94
-109.91
-117.35
-122.03
-126.71
-133.67
-143.39
-154.2
-163.14
-167.51
-166.17
-160.06
-151.56
-143.15
-136.26
-130.78
-125.49
-118.89
-110.02
-98.6
-84.91
-69.35
-52.29
-34.31
-16.42
-0.23
12.5
20.75
24.99
27.3
30.49
36.64
45.77
55.59
62.23
61.94
52.68
34.87
10.94
-15.73
-42.07
-65.92
-86.09
-102.01
-113.52
-120.96
-125.22
-127.81
-130.41
-134.3
-139.91
-146.63
-153.22
-158.36
-161.16
-161.36
-159.21
-155.11
-149.42
-142.39
-134.32
-125.66
-116.99
-108.88
-101.67
-95.39
-89.79
-84.54
-79.43
-74.41
-69.58
-65.02
-60.93
-57.59
-55.53
-55.46
-57.97
-63.25
-70.86
-79.72
-88.48
-96.0
-101.74
-105.93
-109.31
-112.78
-116.96
-122.05
-127.84
-133.94
-139.93
-145.44
-150.04
-153.25
-154.58
-153.83
-151.32
-147.9
-144.57
-141.91
-139.54
-136.04
-129.38
-117.73
-100.24
-77.46
-51.13
-23.66
2.57
25.72
44.76
59.37
69.71
76.23
79.62
80.69
80.42
79.81
79.81
81.15
84.3
89.39
96.3
104.66
113.93
123.33
131.94
138.74
142.9
143.98
142.1
137.9
132.34
126.3
120.35
114.63
108.86
102.62
95.53
87.49
78.65
69.43
60.22
51.29
42.67
34.22
25.86
17.78
10.62
5.41
3.34
5.47
12.32
23.74
38.9
56.57
75.41
94.26
112.24
128.58
142.45
152.88
158.84
159.59
155.12
146.24
134.42
121.26
107.98
95.07
82.59
70.58
59.46
50.2
43.89
41.24
42.09
45.39
49.61
53.31
55.68
56.78
57.47
59.1
63.12
70.62
81.92
96.27
111.8
125.84
135.63
139.38
137.02
130.58
123.73
120.67
124.72
137.13
156.59
179.48
201.15
217.28
225.18
224.23
215.71
201.89
185.18
167.5
149.99
133.28
117.62
103.14
89.83
77.43
65.5
53.49
40.98
27.87
14.52
1.5
-10.53
-21.15
-30.48
-39.14
-48.11
-58.37
-70.5
-84.45
-99.56
-114.9
-129.67
-143.57
-156.94
-170.64
-185.66
-202.8
-222.22
-243.19
-263.8
-281.13
-291.64
-292.01
-280.12
-255.86
-221.34
-180.37
-137.42
-96.34
-59.45
-27.36
0.7
26.08
49.96
72.84
94.46
113.96
130.38
143.03
151.84
157.39
160.78
163.2
165.55
168.24
171.13
173.73
175.49
176.02
175.22
173.18
170.06
165.9
160.57
153.69
144.9
133.92
120.82
106.04
90.36
74.65
59.64
45.73
32.88
20.79
9.1
-2.31
-13.22
-23.04
-31.02
-36.53
-39.25
-39.28
-37.18
-33.84
-30.27
-27.38
-25.61
-24.79
-23.99
-21.76
-16.51
-7.11
6.61
23.78
42.58
60.82
76.48
88.11
94.98
96.96
94.28
87.33
76.71
63.25
48.07
32.49
17.67
4.27
-7.89
-19.63
-32.18
-46.52
-63.15
-81.9
-102.11
-122.99
-143.76
-163.78
-182.42
-198.86
-212.02
-220.5
-222.77
-217.4
-203.6
-181.54
-152.64
-119.37
-84.79
-51.81
-22.51
2.14
22.18
38.24
51.09
61.49
70.16
77.92
85.65
94.04
103.23
112.59
120.89
126.72
129.23
128.6
126.16
123.83
123.29
124.98
127.6
128.4
124.07
112.04
91.58
64.24
33.39
3.2
-22.72
-42.45
-56.18
-65.93
-74.69
-85.33
-99.68
-117.96
-138.77
-159.46
-176.86
-187.98
-190.59
-183.77
-168.06
-145.44
-118.97
-92.11
-68.06
-49.03
-35.94
-28.54
-25.71
-25.96
-27.8
-30.04
-31.88
-32.9
-33.08
-32.68
-32.03
-31.4
-30.86
-30.37
-30.06
-30.43
-32.33
-36.67
-43.92
-53.58
-64.16
-73.44
-79.13
-79.67
-74.77
-65.56
-54.45
-44.59
-39.0
-39.74
-47.09
-59.2
-72.48
-82.6
-85.8
-79.91
-65.01
-43.36
-18.97
3.24
18.58
23.79
18.18
4.07
-13.63
-29.0
-37.1
-35.68
-25.75
-10.76
4.99
18.14
27.13
32.09
34.1
34.28
33.35
31.59
29.15
26.34
23.77
22.03
21.43
21.77
22.31
22.09
20.33
16.82
12.04
7.03
2.89
0.26
-0.92
-1.51
-2.69
-5.46
-10.23
-16.64
-23.85
-30.91
-37.12
-42.03
-45.26
-46.27
-44.36
-38.86
-29.56
-16.9
-2.11
13.25
27.61
39.85
49.45
56.32
60.62
62.57
62.42
60.44
57.07
52.85
48.36
44.08
40.34
37.27
34.87
33.11
31.9
31.17
30.76
30.46
29.96
29.03
27.48
25.25
22.37
18.97
15.16
11.11
6.95
2.85
-1.07
-4.7
-8.07
-11.33
-14.76
-18.72
-23.53
-29.45
-36.43
-44.1
-51.63
-57.9
-61.69
-61.97
-58.24
-50.66
-39.95
-27.18
-13.47
0.19
12.99
24.27
33.47
40.19
44.27
45.95
45.8
44.55
42.85
41.13
39.53
38.09
36.86
36.0
35.66
35.91
36.68
37.7
38.7
39.43
39.77
39.61
38.83
37.26
34.75
31.29
26.99
22.07
16.65
10.73
4.18
-3.01
-10.65
-18.28
-25.31
-31.22
-35.87
-39.53
-42.83
-46.62
-51.58
-58.02
-65.51
-72.98
-78.76
-81.1
-78.65
-70.86
-58.19
-41.89
-23.62
-5.02
12.58
28.27
41.53
52.14
60.21
66.1
70.4
73.76
76.63
79.22
81.44
83.19
84.49
85.59
86.9
88.79
91.35
94.37
97.37
99.79
101.1
100.79
98.41
93.56
85.95
75.6
62.87
48.43
32.98
17.04
0.8
-15.78
-32.77
-49.96
-66.79
-82.38
-95.75
-106.11
-113.02
-116.43
-116.63
-114.16
-109.69
-103.97
-97.74
-91.54
-85.54
-79.32
-71.9
-61.89
-48.11
-30.0
-8.12
15.88
39.61
60.63
77.15
88.37
94.53
96.54
95.44
92.08
86.98
80.46
72.8
64.4
55.72
47.23
39.21
31.83
25.13
19.18
14.11
10.1
7.25
5.51
4.73
4.64
5.08
5.99
7.45
9.6
12.46
15.92
19.56
22.8
25.05
25.98
25.63
24.35
22.63
20.64
17.94
13.53
6.21
-4.78
-19.22
-35.72
-52.13
-66.11
-75.93
-80.81
-80.96
-77.25
-70.74
-62.38
-52.98
-43.24
-33.95
-25.9
-19.83
-16.16
-14.89
-15.55
-17.34
-19.36
-20.82
-21.19
-20.24
-17.98
-14.45
-9.76
-4.05
2.46
9.35
16.07
22.02
26.77
30.14
32.27
33.47
34.11
34.43
34.44
34.01
32.97
31.21
28.73
25.65
22.13
18.38
14.54
10.68
6.83
2.87
-1.45
-6.34
-11.88
-17.74
-23.1
-26.76
-27.53
-24.65
-18.1
-8.7
2.22
13.27
23.4
32.09
39.3
45.19
49.82
53.06
54.58
54.12
51.56
47.16
41.52
35.39
29.54
24.53
20.6
17.76
15.92
15.0
14.97
15.71
16.97
18.3
19.16
19.09
17.88
15.68
12.93
10.16
7.84
6.23
5.33
4.9
4.54
3.86
2.55
0.61
-1.74
-4.09
-6.13
-7.76
-9.16
-10.71
-12.8
-15.69
-19.43
-23.81
-28.4
-32.58
-35.56
-36.46
-34.55
-29.46
-21.42
-11.19
0.04
11.1
21.07
29.47
36.23
41.44
45.17
47.38
47.99
47.0
44.65
41.42
37.93
34.73
32.19
30.42
29.43
29.17
29.62
30.81
32.7
35.13
37.77
40.27
42.28
43.62
44.23
44.18
43.6
42.61
41.35
39.91
38.34
36.61
34.59
32.1
28.96
25.15
20.74
15.93
10.89
5.75
0.53
-4.79
-10.3
-16.12
-22.43
-29.46
-37.31
-45.82
-54.41
-62.12
-67.82
-70.62
-70.1
-66.47
-60.47
-53.14
-45.56
-38.68
-33.2
-29.53
-27.79
-27.84
-29.31
-31.71
-34.56
-37.43
-40.05
-42.24
-43.88
-44.89
-45.21
-44.83
-43.76
-42.08
-39.89
-37.35
-34.68
-32.19
-30.18
-28.85
-28.21
-28.06
-28.07
-27.84
-27.17
-26.08
-24.85
-23.85
-23.39
-23.58
-24.35
-25.45
-26.7
-27.99
-29.4
-31.1
-33.36
-36.34
-40.15
-44.65
-49.43
-53.83
-56.95
-57.95
-56.11
-51.16
-43.31
-33.22
-21.87
-10.28
0.6
10.18
18.08
24.15
28.35
30.68
31.24
30.26
28.12
25.39
22.63
20.34
18.8
18.12
18.23
19.08
20.61
22.78
25.44
28.35
31.12
33.37
34.83
35.46
35.45
35.09
34.65
34.2
33.64
32.73
31.24
29.05
26.18
22.74
18.82
14.42
9.48
3.87
-2.51
-9.7
-17.5
-25.43
-32.65
-38.1
-40.72
-39.83
-35.4
-28.08
-19.04
-9.52
-0.56
7.23
13.62
18.55
21.99
23.92
24.37
23.5
21.6
18.98
15.93
12.6
9.08
5.45
1.86
-1.46
-4.23
-6.28
-7.6
-8.4
-9.04
-9.98
-11.57
-13.98
-17.11
-20.67
-24.37
-27.94
-31.26
-34.31
-37.11
-39.67
-41.95
-43.94
-45.61
-46.96
-48.04
-48.89
-49.62
-50.39
-51.44
-53.03
-55.27
-58.01
-60.72
-62.54
-62.52
-59.92
-54.48
-46.6
-37.19
-27.48
-18.63
-11.49
-6.53
-3.87
-3.4
-4.91
-8.12
-12.75
-18.43
-24.81
-31.56
-38.39
-45.03
-51.32
-57.14
-62.39
-67.02
-70.96
-74.16
-76.58
-78.22
-79.1
-79.24
-78.64
-77.18
-74.65
-70.77
-65.29
-58.09
-49.2
-38.78
-27.0
-14.02
0.06
15.08
30.78
46.75
62.49
77.51
91.42
104.03
115.35
125.5
134.63
142.76
149.66
154.77
157.33
156.67
152.62
145.92
138.43
132.82
132.03
138.32
152.47
173.23
197.35
220.26
237.34
245.38
243.57
233.73
219.55
205.14
193.54
185.88
181.3
177.78
172.92
164.45
150.33
128.87
99.33
62.89
23.15
-14.35
-43.78
-61.35
-66.8
-63.29
-55.82
-48.95
-45.3
-45.53
-49.52
-57.71
-71.5
-92.49
-121.06
-155.4
-191.65
-225.22
-252.3
-270.93
-281.04
-283.76
-280.31
-271.32
-256.78
-236.69
-211.74
-183.76
-155.61
-130.44
-110.75
-97.76
-91.24
-89.88
-91.83
-95.26
-98.55
-100.33
-99.46
-95.04
-86.62
-74.42
-59.39
-43.02
-26.97
-12.55
-0.58
8.71
15.47
20.09
23.02
24.81
26.13
27.62
29.84
32.99
36.93
41.28
45.62
49.81
53.97
58.43
63.44
68.98
74.7
80.09
84.64
88.07
90.45
92.11
93.48
94.84
96.22
97.37
97.84
97.2
95.31
92.36
88.97
85.91
83.89
83.29
84.0
85.54
87.25
88.58
89.3
89.56
89.73
90.26
91.36
93.01
94.91
96.66
97.92
98.57
98.89
99.6
101.89
107.19
116.81
131.46
150.75
172.99
195.47
215.09
229.18
236.15
235.72
228.66
216.27
199.88
180.52
159.04
136.3
113.27
91.05
70.59
52.56
37.18
24.31
13.57
4.5
-3.41
-10.62
-17.56
-24.56
-31.75
-39.01
-46.0
-52.26
-57.48
-61.55
-64.66
-67.23
-69.79
-72.89
-76.91
-82.01
-88.0
-94.48
-100.9
-106.77
-111.72
-115.62
-118.5
-120.57
-122.09
-123.22
-123.97
-124.04
-122.96
-120.32
-116.12
-110.96
-106.07
-102.87
-102.42
-104.8
-108.89
-112.68
-114.02
-111.49
-104.99
-95.78
-85.92
-77.46
-71.82
-69.47
-70.12
-73.27
-78.59
-86.07
-95.82
-107.65
-120.92
-134.59
-147.58
-159.13
-168.99
-177.34
-184.57
-191.12
-197.4
-203.78
-210.53
-217.47
-223.67
-227.37
-226.28
-218.48
-203.25
-181.6
-156.03
-129.71
-105.44
-84.84
-68.24
-54.98
-44.01
-34.25
-24.77
-14.84
-4.15
6.89
16.9
23.76
25.28
20.06
8.19
-8.7
-28.04
-47.27
-64.64
-79.54
-92.25
-103.35
-113.16
-121.33
-126.9
-128.6
-125.23
-116.05
-101.04
-80.88
-56.76
-30.09
-2.25
25.62
52.61
78.05
101.47
122.61
141.52
158.51
174.11
188.92
203.43
217.92
232.43
246.91
261.3
275.66
290.15
304.9
319.76
334.26
347.58
358.8
367.11
372.06
373.55
371.68
366.63
358.42
347.0
332.25
314.07
292.5
267.73
240.11
210.12
178.36
145.44
111.83
77.85
43.64
9.41
-24.27
-56.37
-85.55
-110.57
-130.71
-146.02
-157.22
-165.18
-170.56
-173.51
-173.67
-170.53
-163.73
-153.29
-139.66
-123.6
-106.02
-87.85
-69.96
-53.12
-38.03
-25.22
-15.1
-7.79
-3.11
-0.63
0.3
0.32
-0.0
-0.22
-0.02
0.76
2.18
4.08
6.14
7.99
9.25
9.69
9.21
7.83
5.61
2.67
-0.78
-4.51
-8.31
-12.13
-16.1
-20.5
-25.46
-30.94
-36.57
-41.85
-46.33
-49.87
-52.65
-55.03
-57.43
-60.06
-62.89
-65.67
-68.07
-69.8
-70.75
-71.01
-70.92
-70.86
-71.17
-72.09
-73.65
-75.7
-77.92
-79.82
-80.72
-79.8
-76.23
-69.39
-59.18
-46.23
-31.75
-17.34
-4.44
6.03
13.81
19.12
22.37
23.89
23.87
22.44
19.86
16.67
13.46
10.85
9.17
8.44
8.47
8.95
9.63
10.33
10.95
11.43
11.69
11.66
11.27
10.38
8.87
6.65
3.75
0.39
-3.05
-6.18
-8.82
-11.06
-13.24
-15.76
-18.85
-22.43
-26.16
-29.63
-32.54
-34.78
-36.47
-37.8
-38.95
-40.12
-41.51
-43.33
-45.67
-48.31
-50.66
-51.73
-50.47
-46.1
-38.5
-28.28
-16.61
-4.85
5.81
14.61
21.18
25.44
27.46
27.37
25.47
22.16
18.03
13.62
9.42
5.71
2.61
0.1
-1.85
-3.27
-4.16
-4.55
-4.55
-4.37
-4.26
-4.52
-5.36
-6.88
-9.0
-11.52
-14.18
-16.71
-18.92
-20.77
-22.34
-23.8
-25.38
-27.2
-29.21
-31.25
-33.08
-34.63
-36.06
-37.72
-40.05
-43.3
-47.4
-51.82
-55.76
-58.22
-58.29
-55.31
-48.97
-39.48
-27.55
-14.31
-1.08
10.89
20.73
27.98
32.68
35.06
35.45
34.09
31.21
27.08
22.15
17.05
12.5
9.05
6.98
6.17
6.3
7.0
8.05
9.47
11.32
13.58
15.88
17.65
18.25
17.33
14.91
11.43
7.51
3.67
0.22
-2.87
-5.76
-8.6
-11.48
-14.41
-17.35
-20.27
-23.17
-26.05
-28.9
-31.67
-34.29
-36.77
-39.27
-42.06
-45.46
-49.67
-54.43
-59.01
-62.21
-62.67
-59.38
-51.99
-41.0
-27.52
-13.0
1.22
14.18
25.23
34.08
40.53
44.51
46.07
45.46
43.2
39.89
36.22
32.69
29.64
27.14
25.17
23.62
22.45
21.67
21.31
21.36
21.71
22.14
22.32
21.98
20.9
19.04
16.55
13.68
10.74
7.95
5.43
3.11
0.85
-1.53
-4.14
-6.94
-9.79
-12.44
-14.71
-16.52
-18.02
-19.44
-21.04
-23.03
-25.38
-27.97
-30.5
-32.77
-34.6
-36.0
-37.09
-38.14
-39.57
-41.87
-45.35
-49.88
-54.76
-58.69
-60.18
-57.93
-51.39
-40.89
-27.57
-12.95
1.51
14.68
25.95
35.02
41.78
46.17
48.17
47.91
45.67
41.95
37.41
32.75
28.59
25.33
23.16
22.05
21.82
22.19
22.91
23.68
24.31
24.65
24.61
24.16
23.28
21.96
20.17
17.92
15.23
12.19
8.87
5.36
1.74
-1.89
-5.4
-8.72
-11.81
-14.75
-17.66
-20.62
-23.59
-26.4
-28.87
-30.91
-32.67
-34.53
-37.01
-40.57
-45.35
-51.09
-57.07
-62.17
-65.13
-64.77
-60.36
-51.71
-39.4
-24.51
-8.51
7.08
20.94
32.19
40.38
45.51
47.86
47.88
46.04
42.81
38.64
34.04
29.55
25.63
22.62
20.7
19.8
19.71
20.21
21.04
21.95
22.71
23.12
22.98
22.22
20.89
19.18
17.35
15.56
13.85
12.13
10.16
7.8
5.0
1.88
-1.34
-4.41
-7.18
-9.58
-11.71
-13.75
-15.95
-18.5
-21.49
-24.82
-28.23
-31.42
-34.17
-36.5
-38.69
-41.24
-44.69
-49.4
-55.35
-61.94
-68.05
-72.1
-72.5
-68.06
-58.43
-44.23
-26.95
-8.51
9.18
24.68
37.16
46.38
52.48
55.82
56.75
55.67
53.0
49.24
44.98
40.82
37.23
34.53
32.78
31.9
31.76
32.25
33.29
34.79
36.54
38.23
39.45
39.8
39.03
37.12
34.25
30.7
26.77
22.63
18.38
14.05
9.7
5.44
1.42
-2.31
-5.79
-9.16
-12.6
-16.26
-20.1
-24.08
-28.04
-31.84
-35.4
-38.68
-41.68
-44.5
-47.34
-50.54
-54.44
-59.28
-64.9
-70.64
-75.31
-77.39
-75.43
-68.51
-56.49
-40.25
-21.36
-1.81
16.55
32.3
44.67
53.48
58.95
61.49
61.54
59.54
55.92
51.17
45.86
40.62
36.06
32.59
30.38
29.33
29.18
29.58
30.26
30.98
31.52
31.63
31.06
29.61
27.21
23.92
19.95
15.49
10.79
6.06
1.54
-2.52
-5.89
-8.44
-10.21
-11.39
-12.29
-13.2
-14.31
-15.63
-17.1
-18.57
-19.99
-21.34
-22.79
-24.66
-27.37
-31.33
-36.67
-43.06
-49.55
-54.63
-56.6
-54.06
-46.39
-34.02
-18.31
-1.11
15.77
30.98
43.67
53.45
60.04
63.3
63.25
60.15
54.71
47.92
40.91
34.65
29.75
26.4
24.43
23.54
23.36
23.59
23.98
24.37
24.57
24.4
23.69
22.3
20.16
17.29
13.77
9.73
5.39
0.96
-3.33
-7.36
-11.09
-14.64
-18.2
-21.94
-25.95
-30.07
-34.02
-37.47
-40.23
-42.37
-44.22
-46.31
-49.2
-53.3
-58.67
-64.92
-71.1
-75.82
-77.46
-74.58
-66.37
-52.96
-35.45
-15.69
4.29
22.68
38.26
50.48
59.26
64.79
67.33
67.15
64.56
60.09
54.41
48.39
42.82
38.29
35.0
32.79
31.22
29.86
28.47
27.1
25.91
25.11
24.66
24.31
23.72
22.54
20.6
17.9
14.55
10.72
6.59
2.38
-1.67
-5.43
-8.87
-12.11
-15.42
-18.98
-22.89
-26.99
-30.97
-34.58
-37.71
-40.5
-43.32
-46.62
-50.75
-55.91
-61.91
-68.09
-73.38
-76.33
-75.46
-69.63
-58.45
-42.43
-22.97
-1.96
18.62
37.23
52.89
65.15
73.94
79.35
81.54
80.84
77.82
73.21
67.84
62.4
57.3
52.7
48.66
45.26
42.7
41.21
40.85
41.38
42.25
42.84
42.63
41.36
39.02
35.77
31.78
27.31
22.62
18.08
14.02
10.68
8.05
5.93
3.98
1.97
-0.22
-2.52
-4.81
-7.04
-9.19
-11.3
-13.39
-15.4
-17.28
-19.04
-20.84
-23.03
-26.1
-30.52
-36.42
-43.4
-50.44
-56.06
-58.75
-57.46
-52.04
-43.14
-32.1
-20.41
-9.31
0.37
8.26
14.23
18.22
20.12
19.92
17.84
14.41
10.46
6.92
4.53
3.63
4.14
5.68
7.84
10.4
13.37
16.93
21.23
26.22
31.62
36.98
41.76
45.52
48.0
49.15
49.21
48.6
47.8
47.18
46.84
46.58
46.01
44.7
42.46
39.44
36.05
32.74
29.71
26.76
23.43
19.16
13.67
7.05
-0.32
-8.01
-15.77
-23.54
-31.28
-38.75
-45.42
-50.59
-53.62
-54.29
-52.83
-49.83
-45.98
-41.89
-37.93
-34.29
-31.07
-28.38
-26.35
-25.12
-24.74
-25.18
-26.31
-27.91
-29.7
-31.36
-32.54
-32.87
-32.11
-30.17
-27.21
-23.59
-19.81
-16.32
-13.46
-11.4
-10.12
-9.55
-9.54
-9.94
-10.62
-11.43
-12.27
-13.07
-13.8
-14.5
-15.25
-16.16
-17.26
-18.55
-19.91
-21.11
-21.97
-22.35
-22.3
-22.07
-21.98
-22.46
-23.76
-25.94
-28.74
-31.58
-33.62
-33.95
-31.79
-26.78
-19.13
-9.62
0.63
10.43
18.79
25.18
29.41
31.62
32.07
31.09
29.0
26.21
23.13
20.14
17.56
15.53
14.02
12.95
12.18
11.68
11.46
11.48
11.67
11.85
11.8
11.27
10.11
8.25
5.77
2.8
-0.44
-3.74
-6.98
-10.15
-13.35
-16.68
-20.16
-23.67
-26.94
-29.69
-31.73
-33.05
-33.92
-34.69
-35.71
-37.21
-39.23
-41.61
-44.09
-46.4
-48.38
-49.99
-51.36
-52.74
-54.58
-57.33
-61.3
-66.41
-71.92
-76.48
-78.36
-75.99
-68.49
-56.13
-40.18
-22.59
-5.46
9.57
21.54
30.1
35.32
37.39
36.49
32.87
26.95
19.37
10.97
2.54
-5.44
-12.88
-20.12
-27.63
-35.78
-44.54
-53.63
-62.59
-71.14
-79.33
-87.51
-96.18
-105.8
-116.55
-128.33
-140.67
-152.99
-164.65
-175.23
-184.52
-192.58
-199.5
-205.24
-209.49
-211.69
-211.19
-207.45
-200.19
-189.39
-175.28
-158.22
-138.77
-117.81
-96.5
-76.23
-58.2
-43.1
-30.82
-20.56
-11.15
-1.59
8.56
19.11
29.47
38.93
47.01
53.52
58.47
61.86
63.57
63.37
61.08
56.68
50.35
42.41
33.19
22.92
11.67
-0.53
-13.63
-27.36
-41.22
-54.49
-66.38
-76.21
-83.54
-88.32
-90.77
-91.29
-90.27
-87.99
-84.47
-79.64
-73.41
-65.82
-57.1
-47.63
-37.87
-28.2
-18.83
-9.79
-0.89
8.29
18.44
30.33
44.42
60.48
77.14
92.09
102.58
106.33
102.24
90.69
73.35
52.62
31.15
11.52
-3.94
-13.28
-15.25
-9.57
2.94
20.56
41.09
62.42
82.81
100.97
116.04
127.46
135.05
138.97
139.66
137.8
134.05
129.02
123.18
117.04
111.15
106.09
102.39
100.31
99.77
100.29
101.18
101.75
101.63
100.81
99.63
98.59
98.08
98.3
99.28
100.93
103.2
106.06
109.53
113.66
118.52
124.27
131.13
139.26
148.58
158.65
168.6
177.36
183.86
187.41
187.78
185.2
180.16
173.13
164.35
153.78
141.14
126.24
109.27
91.09
73.25
57.82
46.84
41.83
43.33
50.67
62.26
75.95
89.5
100.89
108.5
111.17
108.35
100.2
87.66
72.28
55.91
40.14
25.88
13.39
2.44
-7.16
-15.26
-21.31
-24.65
-24.98
-22.58
-18.34
-13.39
-8.78
-5.13
-2.65
-1.25
-0.74
-1.03
-2.05
-3.7
-5.72
-7.7
-9.2
-9.99
-10.16
-10.16
-10.56
-11.87
-14.19
-17.17
-20.19
-22.65
-24.31
-25.46
-26.86
-29.45
-33.95
-40.46
-48.25
-55.8
-61.16
-62.43
-58.35
-48.68
-34.29
-16.87
1.57
19.18
34.65
47.2
56.54
62.66
65.7
65.96
63.88
60.03
55.12
49.82
44.7
40.22
36.61
34.0
32.46
32.04
32.77
34.59
37.28
40.39
43.36
45.61
46.83
47.09
46.81
46.54
46.66
47.19
47.72
47.62
46.34
43.6
39.51
34.46
28.89
23.14
17.32
11.32
4.87
-2.33
-10.46
-19.39
-28.56
-36.98
-43.43
-46.77
-46.32
-42.11
-34.89
-25.87
-16.34
-7.39
0.41
6.92
12.34
16.97
21.01
24.51
27.38
29.6
31.34
32.97
34.99
37.83
41.63
46.18
50.99
55.56
59.56
62.97
65.9
68.52
70.78
72.41
72.99
72.15
69.7
65.72
60.55
54.61
48.35
42.13
36.18
30.49
24.89
18.97
12.3
4.46
-4.75
-15.21
-26.52
-37.89
-48.26
-56.4
-61.16
-61.75
-58.05
-50.66
-40.83
-30.1
-19.86
-11.17
-4.55
-0.11
2.23
2.62
1.2
-1.85
-6.26
-11.58
-17.24
-22.65
-27.3
-30.86
-33.19
-34.33
-34.43
-33.62
-32.05
-29.83
-27.1
-24.1
-21.12
-18.49
-16.54
-15.5
-15.49
-16.47
-18.31
-20.77
-23.59
-26.51
-29.35
-32.02
-34.6
-37.39
-40.74
-45.01
-50.34
-56.44
-62.61
-67.69
-70.37
-69.5
-64.52
-55.6
-43.68
-30.19
-16.61
-4.17
6.4
14.81
21.0
25.06
27.1
27.37
26.27
24.33
22.05
19.83
17.79
15.86
13.93
11.94
10.02
8.4
7.36
7.01
7.26
7.75
7.96
7.42
5.83
3.22
-0.12
-3.77
-7.39
-10.84
-14.23
-17.76
-21.6
-25.74
-29.99
-34.06
-37.7
-40.79
-43.4
-45.79
-48.34
-51.46
-55.53
-60.69
-66.71
-72.82
-77.78
-80.11
-78.58
-72.57
-62.39
-49.19
-34.59
-20.21
-7.24
3.69
12.4
18.95
23.36
25.65
25.87
24.21
21.14
17.27
13.22
9.46
6.2
3.45
1.14
-0.82
-2.43
-3.64
-4.44
-4.97
-5.54
-6.55
-8.4
-11.32
-15.29
-20.04
-25.14
-30.13
-34.67
-38.63
-42.14
-45.52
-49.07
-52.97
-57.1
-61.07
-64.31
-66.31
-66.84
-66.08
-64.61
-63.22
-62.72
-63.66
-66.15
-69.8
-73.75
-76.76
-77.51
-74.9
-68.33
-57.94
-44.54
-29.36
-13.8
0.97
14.05
24.88
33.15
38.74
41.71
42.3
40.98
38.34
35.06
31.77
28.92
26.75
25.35
24.62
24.43
24.65
25.22
26.09
27.17
28.3
29.28
29.9
30.01
29.65
28.96
28.15
27.44
26.92
26.56
26.17
25.44
24.09
21.95
19.05
15.6
11.94
8.36
5.03
1.9
-1.26
-4.85
-9.33
-15.13
-22.51
-31.32
-40.96
-50.24
-57.68
-61.77
-61.47
-56.48
-47.41
-35.51
-22.35
-9.33
2.54
12.73
21.07
27.55
32.21
35.05
36.13
35.65
33.98
31.62
29.01
26.52
24.26
22.25
20.42
18.83
17.65
17.12
17.45
18.62
20.41
22.4
24.17
25.43
26.13
26.37
26.32
26.08
25.6
24.72
23.37
21.5
19.3
17.03
14.95
13.23
11.79
10.43
8.86
6.87
4.41
1.61
-1.32
-4.17
-6.85
-9.4
-12.08
-15.33
-19.65
-25.56
-33.25
-42.38
-51.88
-60.17
-65.52
-66.66
-63.28
-56.13
-46.7
-36.74
-27.64
-20.18
-14.48
-10.25
-7.1
-4.75
-3.1
-2.2
-2.11
-2.83
-4.18
-5.82
-7.26
-8.05
-7.88
-6.72
-4.79
-2.49
-0.14
2.01
3.93
5.61
7.02
7.99
8.43
8.27
7.54
6.44
5.15
3.8
2.43
1.03
-0.44
-1.96
-3.54
-5.21
-7.03
-9.08
-11.36
-13.79
-16.21
-18.52
-20.73
-23.06
-25.89
-29.59
-34.42
-40.35
-46.92
-53.2
-57.91
-59.69
-57.43
-50.68
-39.76
-25.79
-10.32
5.09
19.18
31.18
40.77
47.87
52.51
54.83
55.02
53.52
50.86
47.65
44.42
41.52
39.1
37.2
35.83
35.08
35.0
35.66
36.92
38.49
39.93
40.84
40.94
40.19
38.76
36.89
34.82
32.7
30.55
28.38
26.16
23.82
21.31
18.51
15.37
11.92
8.32
4.81
1.6
-1.24
-3.81
-6.39
-9.29
-12.69
-16.55
-20.61
-24.43
-27.69
-30.29
-32.48
-34.8
-37.97
-42.55
-48.75
-56.3
-64.38
-71.74
-76.94
-78.66
-75.96
-68.63
-57.19
-42.87
-27.3
-12.13
1.32
12.3
20.6
26.42
30.1
32.01
32.44
31.68
30.1
28.12
26.19
24.68
23.78
23.56
23.96
24.87
26.22
27.94
29.98
32.25
34.55
36.59
38.03
38.52
37.93
36.34
34.06
31.52
29.08
26.85
24.69
22.31
19.42
15.99
12.21
8.43
4.97
1.98
-0.63
-3.09
-5.63
-8.39
-11.42
-14.6
-17.87
-21.12
-24.34
-27.49
-30.54
-33.42
-36.1
-38.57
-41.04
-43.87
-47.46
-52.09
-57.65
-63.47
-68.39
-71.03
-70.16
-65.13
-56.11
-44.01
-30.21
-16.2
-3.16
8.1
17.29
24.38
29.49
32.68
34.0
33.47
31.3
27.91
23.91
20.05
17.02
15.3
15.12
16.47
19.11
22.61
26.44
30.0
32.79
34.4
34.65
33.56
31.32
28.22
24.55
20.55
16.4
12.19
7.96
3.77
-0.34
-4.27
-7.98
-11.47
-14.82
-18.17
-21.69
-25.52
-29.72
-34.29
-39.14
-44.12
-49.07
-53.9
-58.77
-64.07
-70.31
-77.84
-86.56
-95.66
-103.69
-108.9
-109.76
-105.39
-95.84
-82.06
-65.59
-48.19
-31.5
-16.76
-4.77
4.26
10.5
14.39
16.47
17.24
17.05
16.21
15.01
13.73
12.65
11.95
11.71
12.0
12.98
14.9
17.93
22.07
26.93
31.84
36.04
38.95
40.43
40.72
40.36
39.92
39.81
40.24
41.13
42.27
43.34
44.11
44.47
44.52
44.49
44.7
45.28
46.14
46.91
47.03
46.0
43.48
39.38
33.77
26.75
18.32
8.34
-3.39
-16.98
-32.16
-48.19
-63.81
-77.41
-87.4
-92.61
-92.57
-87.61
-78.72
-67.17
-54.22
-40.94
-28.1
-16.28
-5.93
2.59
9.07
13.54
16.32
17.89
18.81
19.55
20.45
21.62
23.05
24.69
26.49
28.48
30.7
33.21
35.97
38.83
41.49
43.57
44.75
44.84
43.87
42.14
40.0
37.8
35.68
33.62
31.47
29.07
26.35
23.35
20.18
16.91
13.61
10.29
6.96
3.57
0.06
-3.69
-7.79
-12.27
-17.11
-22.14
-27.23
-32.32
-37.44
-42.71
-48.33
-54.51
-61.41
-69.03
-77.04
-84.64
-90.62
-93.63
-92.61
-87.22
-78.02
-66.2
-53.25
-40.46
-28.67
-18.36
-9.76
-3.09
1.38
3.46
3.17
0.87
-2.8
-7.1
-11.37
-15.23
-18.6
-21.65
-24.65
-27.8
-31.08
-34.21
-36.67
-37.73
-36.66
-32.86
-26.12
-16.72
-5.48
6.44
17.94
28.28
37.35
45.66
54.0
63.08
73.35
84.84
97.2
109.85
121.95
132.54
140.57
145.19
146.0
143.21
137.5
129.72
120.58
110.4
99.32
87.6
75.97
65.64
58.05
54.32
54.86
59.18
66.15
74.33
82.41
89.48
95.01
98.7
100.39
99.97
97.46
93.11
87.35
80.79
74.01
67.48
61.51
56.28
51.85
48.24
45.38
43.12
41.2
39.29
36.99
33.9
29.66
23.96
16.73
8.15
-1.28
-10.88
-19.96
-28.06
-35.1
-41.31
-47.15
-52.98
-58.96
-64.97
-70.63
-75.45
-79.0
-80.98
-81.3
-80.15
-77.93
-75.23
-72.75
-71.12
-70.73
-71.57
-73.04
-74.05
-73.23
-69.36
-61.74
-50.44
-36.3
-20.7
-5.14
9.02
20.86
29.94
36.33
40.47
42.98
44.48
45.37
45.79
45.68
44.98
43.76
42.28
40.86
39.76
39.02
38.51
38.09
37.7
37.43
37.37
37.47
37.53
37.23
36.23
34.37
31.66
28.24
24.33
20.11
15.68
11.09
6.28
1.12
-4.6
-11.16
-18.73
-27.32
-36.63
-46.14
-55.18
-63.17
-69.74
-74.79
-78.57
-81.58
-84.47
-87.81
-91.86
-96.36
-100.49
-102.98
-102.49
-98.1
-89.61
-77.66
-63.45
-48.36
-33.61
-20.09
-8.37
1.22
8.5
13.44
16.23
17.25
17.04
16.2
15.26
14.59
14.4
14.71
15.48
16.59
17.9
19.32
20.77
22.22
23.6
24.78
25.57
25.75
25.14
23.65
21.31
18.22
14.68
10.98
7.45
4.28
1.48
-1.21
-4.08
-7.43
-11.25
-15.24
-18.92
-21.84
-23.8
-25.0
-25.97
-27.35
-29.68
-33.2
-37.69
-42.5
-46.61
-48.79
-47.93
-43.31
-34.82
-23.02
-9.03
5.77
20.01
32.56
42.69
49.97
54.27
55.61
54.28
50.73
45.74
40.23
35.13
31.16
28.61
27.4
27.12
27.24
27.34
27.17
26.65
25.76
24.47
22.68
20.3
17.25
13.5
9.1
4.2
-1.03
-6.42
-11.87
-17.4
-23.09
-29.0
-35.1
-41.19
-47.05
-52.43
-57.21
-61.44
-65.31
-69.05
-72.91
-77.09
-81.58
-86.03
-89.68
-91.39
-89.89
-84.2
-74.02
-60.0
-43.57
-26.61
-10.84
2.54
13.06
20.81
26.12
29.38
30.85
30.73
29.37
27.23
24.87
22.78
21.27
20.4
20.1
20.22
20.72
21.58
22.78
24.11
25.23
25.61
24.76
22.38
18.48
13.37
7.59
1.64
-4.12
-9.59
-14.87
-20.16
-25.6
-31.15
-36.63
-41.78
-46.4
-50.38
-53.79
-56.85
-59.94
-63.54
-68.05
-73.67
-80.06
-86.28
-90.76
-91.81
-88.05
-78.93
-65.01
-47.77
-29.14
-10.98
5.29
18.89
29.51
37.11
41.78
43.63
42.86
39.89
35.35
30.03
24.74
20.14
16.54
13.98
12.22
11.04
10.23
9.76
9.61
9.69
9.75
9.41
8.3
6.2
3.15
-0.56
-4.45
-8.11
-11.24
-13.86
-16.24
-18.78
-21.88
-25.73
-30.21
-34.97
-39.67
-44.12
-48.44
-52.97
-58.07
-63.86
-70.14
-76.55
-82.67
-88.31
-93.6
-98.84
-104.45
-110.76
-118.04
-126.5
-136.19
-146.77
-157.22
-165.74
-170.0
-167.84
-157.95
-140.53
-117.22
-90.61
-63.46
-37.94
-15.34
3.8
19.29
31.03
38.85
42.74
42.95
40.14
35.23
29.14
22.64
16.18
10.03
4.38
-0.54
-4.48
-7.31
-9.13
-10.34
-11.57
-13.5
-16.63
-21.17
-26.98
-33.73
-41.01
-48.36
-55.38
-61.72
-67.03
-71.13
-73.89
-75.39
-75.78
-75.32
-74.26
-72.84
-71.18
-69.36
-67.34
-65.06
-62.53
-59.86
-57.25
-54.87
-52.8
-50.99
-49.33
-47.89
-46.89
-46.8
-48.13
-51.34
-56.69
-64.1
-73.04
-82.44
-90.66
-95.7
-95.62
-89.16
-76.2
-57.86
-36.15
-13.37
8.54
28.35
45.5
59.89
71.54
80.41
86.43
89.63
90.31
89.09
86.85
84.58
83.15
83.16
84.86
88.09
92.44
97.35
102.24
106.62
110.13
112.6
113.94
114.15
113.2
111.14
108.05
104.17
99.87
95.54
91.51
87.87
84.51
81.1
77.32
72.96
68.03
62.75
57.43
52.4
47.83
43.67
39.6
35.12
29.62
22.57
13.65
2.96
-8.8
-20.27
-29.6
-34.8
-34.35
-27.61
-15.07
1.78
20.92
40.33
58.39
74.12
87.07
97.22
104.65
109.53
112.04
112.45
111.15
108.64
105.47
102.15
99.08
96.48
94.4
92.83
91.72
91.0
90.55
90.18
89.57
88.38
86.27
83.03
78.7
73.5
67.76
61.82
55.85
49.87
43.73
37.37
30.83
24.32
18.09
12.27
6.84
1.64
-3.54
-8.81
-14.17
-19.56
-24.93
-30.24
-35.42
-40.4
-45.11
-49.64
-54.3
-59.63
-66.15
-74.07
-82.95
-91.65
-98.42
-101.42
-99.19
-91.11
-77.64
-60.2
-40.75
-21.29
-3.43
11.9
24.45
34.38
42.01
47.62
51.33
53.3
53.77
53.17
52.01
50.8
49.84
49.21
48.87
48.71
48.73
48.97
49.5
50.27
51.1
51.7
51.73
50.98
49.43
47.2
44.56
41.79
39.08
36.54
34.11
31.65
28.99
25.98
22.56
18.77
14.78
10.87
7.26
4.05
1.11
-1.86
-5.22
-9.21
-13.83
-18.79
-23.65
-28.04
-31.8
-35.02
-38.04
-41.31
-45.32
-50.45
-56.87
-64.27
-71.77
-77.91
-80.97
-79.49
-72.78
-61.17
-45.99
-29.07
-12.24
3.05
15.98
26.23
33.8
38.81
41.45
41.97
40.75
38.32
35.28
32.22
29.58
27.54
26.09
25.12
24.6
24.61
25.34
26.85
28.96
31.19
32.89
33.5
32.77
30.89
28.32
25.61
23.15
21.02
19.06
17.05
14.81
12.32
9.67
7.0
4.43
2.02
-0.26
-2.51
-4.91
-7.63
-10.79
-14.45
-18.49
-22.67
-26.75
-30.56
-34.07
-37.46
-41.03
-45.11
-49.95
-55.65
-61.92
-68.0
-72.7
-74.6
-72.49
-65.77
-54.77
-40.69
-25.28
-10.33
2.73
13.16
20.78
25.92
29.07
30.72
31.34
31.23
30.66
29.83
28.91
28.03
27.31
26.81
26.57
26.64
27.07
27.94
29.29
31.07
33.1
35.04
36.5
37.14
36.79
35.46
33.38
30.93
28.46
26.24
24.4
22.84
21.38
19.81
18.02
16.09
14.25
12.77
11.84
11.46
11.4
11.33
11.01
10.36
9.5
8.72
8.25
8.11
8.09
7.74
6.56
4.07
-0.01
-5.78
-13.0
-21.1
-29.1
-35.67
-39.44
-39.4
-35.26
-27.7
-18.22
-8.75
-1.01
3.89
5.68
4.78
2.01
-1.71
-5.63
-9.2
-12.05
-13.92
-14.63
-14.13
-12.51
-10.07
-7.24
-4.44
-1.95
0.21
2.21
4.27
6.4
8.31
9.44
9.19
7.23
3.64
-1.03
-6.11
-10.99
-15.42
-19.43
-23.21
-26.89
-30.45
-33.72
-36.53
-38.89
-40.96
-42.97
-45.1
-47.33
-49.48
-51.3
-52.67
-53.76
-54.98
-56.95
-60.31
-65.48
-72.45
-80.62
-88.78
-95.26
-98.27
-96.48
-89.38
-77.57
-62.59
-46.55
-31.49
-18.85
-9.26
-2.53
1.96
5.02
7.23
8.96
10.32
11.27
11.76
11.75
11.29
10.57
9.87
9.52
9.82
10.89
12.71
15.06
17.65
20.16
22.29
23.83
24.67
24.79
24.31
23.41
22.33
21.25
20.29
19.49
18.78
18.03
17.1
15.88
14.33
12.45
10.35
8.14
5.92
3.72
1.47
-1.05
-4.07
-7.85
-12.52
-18.05
-24.23
-30.79
-37.49
-44.33
-51.51
-59.45
-68.52
-78.8
-89.88
-100.72
-109.77
-115.42
-116.36
-112.06
-102.92
-90.15
-75.3
-59.87
-44.9
-30.91
-18.12
-6.63
3.34
11.53
17.73
21.98
24.62
26.22
27.44
28.8
30.59
32.9
35.65
38.75
42.1
45.66
49.38
53.1
56.58
59.51
61.52
62.37
61.97
60.43
58.06
55.24
52.31
49.47
46.74
43.95
40.92
37.51
33.76
29.87
26.1
22.68
19.7
17.04
14.4
11.41
7.8
3.48
-1.43
-6.61
-11.72
-16.5
-20.95
-25.27
-29.84
-35.12
-41.42
-48.75
-56.66
-64.19
-69.97
-72.6
-70.95
-64.59
-53.91
-40.03
-24.52
-8.98
5.3
17.54
27.44
35.05
40.58
44.23
46.17
46.57
45.71
43.98
41.9
40.03
38.83
38.53
39.12
40.42
42.14
43.98
45.65
46.94
47.67
47.72
47.09
45.8
43.93
41.61
38.96
36.08
33.04
29.84
26.47
22.9
19.18
15.39
11.66
8.09
4.71
1.43
-1.89
-5.42
-9.21
-13.16
-17.1
-20.88
-24.44
-27.95
-31.76
-36.36
-42.16
-49.3
-57.52
-65.97
-73.36
-78.16
-78.99
-75.0
-66.13
-53.21
-37.68
-21.24
-5.43
8.65
20.45
29.91
37.2
42.6
46.38
48.77
50.01
50.34
50.05
49.43
48.78
48.34
48.29
48.71
49.64
51.0
52.66
54.4
55.99
57.15
57.66
57.33
56.07
53.93
51.06
47.69
44.12
40.56
37.16
33.93
30.84
27.87
25.09
22.58
20.43
18.55
16.74
14.73
12.3
9.42
6.21
2.84
-0.54
-3.92
-7.42
-11.16
-15.21
-19.51
-23.92
-28.27
-32.44
-36.43
-40.36
-44.47
-49.09
-54.55
-60.99
-68.26
-75.79
-82.58
-87.31
-88.67
-85.68
-78.07
-66.35
-51.74
-35.82
-20.15
-5.88
6.33
16.28
24.06
29.82
33.75
36.03
36.91
36.78
36.06
35.22
34.59
34.41
34.73
35.55
36.79
38.4
40.29
42.27
44.08
45.45
46.16
46.13
45.43
44.18
42.54
40.63
38.53
36.32
34.06
31.79
29.45
26.97
24.31
21.54
18.79
16.21
13.88
11.67
9.41
6.9
4.11
1.16
-1.77
-4.47
-6.88
-9.13
-11.49
-14.23
-17.56
-21.51
-25.94
-30.56
-35.03
-39.11
-42.75
-46.09
-49.48
-53.39
-58.21
-64.01
-70.35
-76.2
-80.12
-80.66
-76.86
-68.61
-56.7
-42.55
-27.82
-13.9
-1.73
8.28
16.09
21.89
25.93
28.5
29.85
30.25
29.93
29.13
28.07
26.96
25.95
25.16
24.63
24.43
24.65
25.36
26.56
28.1
29.66
30.84
31.3
30.87
29.65
27.91
26.01
24.23
22.72
21.42
20.18
18.86
17.46
16.11
15.11
14.75
15.2
16.38
17.96
19.44
20.37
20.52
19.92
18.85
17.71
16.8
16.22
15.79
15.21
14.08
12.17
9.4
5.95
2.09
-1.88
-5.81
-9.74
-13.85
-18.48
-23.91
-30.25
-37.29
-44.44
-50.74
-55.06
-56.42
-54.22
-48.49
-39.87
-29.45
-18.44
-7.91
1.37
9.08
15.15
19.74
23.04
25.16
26.13
25.99
24.87
23.09
21.09
19.29
18.0
17.3
17.09
17.17
17.4
17.71
18.05
18.34
18.38
17.94
16.82
15.0
12.66
10.13
7.71
5.57
3.62
1.59
-0.79
-3.68
-7.08
-10.81
-14.69
-18.55
-22.32
-26.03
-29.75
-33.56
-37.52
-41.64
-45.86
-50.04
-54.02
-57.65
-60.92
-63.93
-66.93
-70.27
-74.26
-79.06
-84.43
-89.65
-93.58
-94.91
-92.55
-86.07
-75.86
-63.01
-48.9
-34.84
-21.73
-10.05
0.04
8.55
15.45
20.69
24.28
26.34
27.12
27.02
26.49
25.93
25.63
25.71
26.22
27.09
28.29
29.74
31.36
33.06
34.65
35.94
36.72
36.86
36.28
35.02
33.18
30.93
28.47
25.94
23.47
21.16
19.05
17.08
15.12
13.04
10.73
8.25
5.71
3.3
1.07
-1.13
-3.6
-6.67
-10.48
-14.89
-19.56
-24.08
-28.2
-31.91
-35.43
-39.11
-43.29
-48.26
-54.18
-60.91
-68.02
-74.62
-79.49
-81.36
-79.27
-72.93
-62.87
-50.33
-36.83
-23.73
-11.94
-1.75
6.88
14.15
20.12
24.71
27.79
29.39
29.8
29.54
29.25
29.4
30.25
31.77
33.76
36.02
38.44
41.0
43.69
46.41
48.95
50.98
52.26
52.65
52.21
51.18
49.88
48.56
47.37
46.21
44.86
42.95
40.14
36.23
31.23
25.36
19.08
12.88
7.15
2.1
-2.34
-6.52
-10.96
-16.19
-22.6
-30.27
-38.82
-47.43
-54.97
-60.2
-62.13
-60.24
-54.65
-46.09
-35.66
-24.61
-13.98
-4.48
3.57
10.09
15.17
18.88
21.26
22.33
22.2
21.07
19.34
17.47
15.88
14.83
14.4
14.49
14.91
15.51
16.23
17.01
17.78
18.4
18.62
18.16
16.83
14.57
11.54
8.04
4.48
1.15
-1.82
-4.54
-7.28
-10.29
-13.69
-17.38
-21.13
-24.64
-27.8
-30.67
-33.5
-36.62
-40.29
-44.71
-50.0
-56.16
-63.03
-70.12
-76.51
-80.95
-82.17
-79.3
-72.25
-61.78
-49.29
-36.37
-24.36
-14.05
-5.65
1.03
6.26
10.22
12.99
14.56
15.01
14.62
13.85
13.2
13.1
13.72
14.97
16.61
18.37
20.14
21.97
23.98
26.24
28.69
31.16
33.44
35.41
37.01
38.27
39.11
39.44
39.1
38.04
36.33
34.22
32.11
30.36
29.26
28.87
29.04
29.44
29.63
29.2
27.9
25.72
22.82
19.44
15.74
11.68
7.03
1.45
-5.3
-13.23
-21.95
-30.68
-38.27
-43.49
-45.3
-43.13
-37.03
-27.66
-16.08
-3.52
8.89
20.23
29.84
37.31
42.53
45.61
46.91
46.85
45.88
44.34
42.49
40.51
38.64
37.04
35.91
35.32
35.25
35.56
36.08
36.59
36.9
36.79
36.02
34.42
31.87
28.43
24.3
19.81
15.25
10.82
6.58
2.38
-1.92
-6.44
-11.16
-15.9
-20.39
-24.45
-28.06
-31.44
-35.0
-39.21
-44.47
-50.85
-57.93
-64.81
-70.17
-72.65
-71.21
-65.49
-55.93
-43.68
-30.18
-16.83
-4.65
5.77
14.19
20.58
24.96
27.44
28.18
27.49
25.81
23.64
21.48
19.66
18.4
17.73
17.59
17.85
18.39
19.14
19.99
20.78
21.29
21.19
20.2
18.18
15.22
11.61
7.74
3.9
0.2
-3.44
-7.23
-11.32
-15.7
-20.23
-24.64
-28.69
-32.22
-35.27
-38.1
-41.15
-44.94
-49.89
-56.09
-63.07
-69.78
-74.77
-76.53
-73.97
-66.79
-55.58
-41.64
-26.61
-11.99
1.14
12.26
21.26
28.24
33.34
36.62
38.16
38.14
36.96
35.16
33.34
31.88
30.96
30.5
30.3
30.23
30.23
30.35
30.6
30.91
31.07
30.79
29.85
28.1
25.57
22.37
18.64
14.55
10.3
6.09
2.13
-1.43
-4.62
-7.57
-10.56
-13.85
-17.56
-21.64
-25.85
-29.87
-33.47
-36.61
-39.45
-42.37
-45.87
-50.39
-56.23
-63.34
-71.23
-78.87
-84.84
-87.62
-86.0
-79.42
-68.24
-53.64
-37.3
-20.94
-5.92
7.01
17.73
26.45
33.5
39.1
43.31
46.11
47.55
47.83
47.31
46.41
45.51
44.89
44.69
44.91
45.54
46.48
47.65
48.92
50.11
50.94
51.09
50.32
48.55
45.93
42.79
39.46
36.19
32.97
29.71
26.27
22.68
19.11
15.79
12.93
10.52
8.38
6.2
3.76
0.94
-2.18
-5.41
-8.55
-11.51
-14.23
-16.8
-19.35
-22.0
-24.89
-28.11
-31.66
-35.43
-39.23
-42.84
-46.12
-49.15
-52.28
-56.03
-60.83
-66.72
-73.06
-78.65
-81.9
-81.36
-76.2
-66.43
-52.94
-37.18
-20.77
-5.13
8.75
20.33
29.45
36.18
40.72
43.3
44.19
43.72
42.28
40.31
38.22
36.34
34.81
33.68
32.86
32.34
32.11
32.21
32.56
32.94
32.98
32.31
30.74
28.24
25.04
21.43
17.67
13.94
10.3
6.78
3.41
0.28
-2.59
-5.23
-7.77
-10.36
-13.18
-16.29
-19.61
-22.94
-26.03
-28.68
-30.86
-32.71
-34.54
-36.74
-39.69
-43.7
-48.83
-54.79
-60.78
-65.57
-67.73
-66.07
-60.01
-49.89
-36.8
-22.3
-7.95
5.1
16.19
25.1
31.91
36.83
40.17
42.24
43.4
43.92
44.02
43.85
43.55
43.31
43.41
44.12
45.63
47.95
50.9
54.11
57.16
59.67
61.4
62.23
62.17
61.3
59.72
57.58
55.04
52.25
49.34
46.38
43.35
40.12
36.59
32.68
28.43
23.99
19.57
15.28
11.04
6.63
1.76
-3.76
-9.91
-16.43
-23.02
-29.44
-35.66
-41.88
-48.47
-55.78
-64.03
-73.08
-82.39
-91.0
-97.62
-101.0
-100.21
-94.96
-85.7
-73.48
-59.68
-45.62
-32.3
-20.33
-9.97
-1.28
5.75
11.12
14.82
16.88
17.44
16.78
15.32
13.51
11.79
10.52
9.89
9.98
10.73
12.0
13.6
15.32
16.93
18.23
19.05
19.29
18.96
18.12
16.88
15.34
13.55
11.52
9.21
6.68
4.05
1.48
-0.91
-3.18
-5.51
-8.18
-11.34
-15.0
-18.94
-22.84
-26.46
-29.73
-32.78
-35.89
-39.38
-43.57
-48.66
-54.6
-61.02
-67.11
-71.72
-73.69
-72.13
-66.81
-58.15
-47.11
-34.81
-22.31
-10.38
0.48
9.98
17.98
24.45
29.48
33.24
35.97
37.9
39.18
39.97
40.38
40.57
40.71
40.94
41.37
42.02
42.83
43.69
44.49
45.07
45.33
45.13
44.33
42.81
40.51
37.47
33.82
29.78
25.55
21.37
17.33
13.42
9.56
5.64
1.57
-2.62
-6.84
-10.93
-14.83
-18.56
-22.24
-26.0
-30.0
-34.33
-39.06
-44.35
-50.24
-56.63
-62.99
-68.38
-71.62
-71.65
-67.91
-60.52
-50.27
-38.34
-25.94
-14.07
-3.44
5.55
12.61
17.65
20.66
21.85
21.54
20.21
18.3
16.24
14.31
12.72
11.6
11.04
11.13
11.96
13.57
15.97
19.05
22.63
26.4
29.96
32.87
34.68
35.07
33.91
31.3
27.61
23.3
18.83
14.5
10.37
6.35
2.22
-2.15
-6.76
-11.41
-15.82
-19.73
-23.0
-25.72
-28.14
-30.64
-33.64
-37.53
-42.52
-48.56
-55.14
-61.3
-65.74
-67.09
-64.37
-57.34
-46.58
-33.42
-19.43
-6.07
5.7
15.44
23.08
28.7
32.38
34.19
34.31
33.08
31.01
28.7
26.6
25.0
23.95
23.36
23.12
23.15
23.41
23.82
24.27
24.58
24.55
24.02
22.91
21.25
19.14
16.73
14.16
11.52
8.8
5.9
2.68
-0.94
-4.92
-9.08
-13.16
-16.95
-20.42
-23.79
-27.45
-31.81
-37.08
-43.04
-49.03
-54.02
-56.9
-56.74
-53.03
-45.82
-35.7
-23.63
-10.83
1.56
12.62
21.76
28.8
33.83
37.08
38.81
39.21
38.49
36.87
34.68
32.33
30.22
28.62
27.66
27.34
27.54
28.12
28.92
29.72
30.29
30.34
29.67
28.19
26.03
23.46
20.82
18.37
16.26
14.38
12.49
10.26
7.42
3.89
-0.18
-4.48
-8.66
-12.47
-15.95
-19.32
-22.97
-27.22
-32.23
-37.9
-43.78
-49.11
-52.94
-54.22
-52.17
-46.49
-37.59
-26.49
-14.58
-3.18
6.83
15.04
21.45
26.24
29.54
31.36
31.74
30.81
28.95
26.66
24.47
22.78
21.73
21.3
21.28
21.51
21.87
22.35
22.91
23.45
23.71
23.3
21.87
19.23
15.47
10.93
6.13
1.53
-2.64
-6.44
-10.14
-14.11
-18.58
-23.56
-28.79
-33.83
-38.35
-42.17
-45.4
-48.39
-51.59
-55.36
-59.87
-64.96
-70.12
-74.55
-77.23
-77.21
-73.88
-67.22
-57.84
-46.84
-35.51
-24.95
-15.91
-8.75
-3.55
-0.27
1.18
1.02
-0.44
-2.68
-5.11
-7.11
-8.2
-8.08
-6.7
-4.22
-0.96
2.74
6.53
10.16
13.43
16.21
18.38
19.84
20.56
20.54
19.84
18.56
16.71
14.32
11.41
8.05
4.43
0.79
-2.65
-5.77
-8.54
-11.09
-13.62
-16.41
-19.78
-23.97
-28.94
-34.21
-38.74
-41.15
-40.04
-34.49
-24.42
-10.76
4.87
20.65
35.1
47.38
57.34
65.2
71.26
75.69
78.47
79.56
79.01
77.13
74.32
71.04
67.61
64.15
60.69
57.16
53.55
49.89
46.25
42.65
39.09
35.46
31.6
27.31
22.43
16.96
11.1
5.19
-0.34
-5.2
-9.35
-13.04
-16.63
-20.45
-24.56
-28.76
-32.7
-36.08
-38.77
-40.88
-42.65
-44.43
-46.65
-49.8
-54.26
-60.15
-67.07
-73.96
-79.28
-81.46
-79.37
-72.79
-62.44
-49.68
-36.1
-23.06
-11.43
-1.6
6.36
12.55
17.13
20.35
22.47
23.87
24.94
26.04
27.42
29.17
31.23
33.43
35.59
37.66
39.66
41.73
43.97
46.38
48.74
50.65
51.69
51.55
50.16
47.72
44.6
41.24
37.98
35.0
32.31
29.72
26.97
23.82
20.12
15.85
11.16
6.3
1.56
-2.84
-6.8
-10.37
-13.78
-17.38
-21.55
-26.6
-32.59
-39.09
-45.18
-49.52
-50.76
-47.92
-40.82
-30.16
-17.3
-3.79
8.97
20.05
29.02
35.75
40.24
42.52
42.68
40.92
37.69
33.61
29.38
25.66
22.88
21.16
20.33
20.09
20.15
20.3
20.51
20.77
21.03
21.1
20.71
19.57
17.5
14.54
10.95
7.09
3.35
-0.05
-3.09
-6.01
-9.11
-12.66
-16.72
-21.11
-25.46
-29.38
-32.66
-35.35
-37.76
-40.36
-43.66
-48.02
-53.5
-59.68
-65.62
-69.97
-71.31
-68.55
-61.35
-50.24
-36.47
-21.61
-7.15
5.84
16.78
25.43
31.76
35.88
37.96
38.31
37.35
35.6
33.56
31.67
30.19
29.17
28.56
28.24
28.09
28.05
28.09
28.19
28.25
28.1
27.49
26.2
24.16
21.43
18.2
14.65
11.0
7.31
3.64
0.0
-3.6
-7.13
-10.6
-14.11
-17.95
-22.41
-27.72
-33.88
-40.59
-47.33
-53.57
-58.93
-63.28
-66.81
-69.92
-73.05
-76.56
-80.51
-84.54
-87.75
-88.96
-86.86
-80.52
-69.69
-54.95
-37.55
-19.04
-0.95
15.57
29.83
41.6
50.97
58.22
63.59
67.28
69.43
70.19
69.82
68.69
67.26
65.94
65.01
64.51
64.37
64.48
64.71
65.03
65.39
65.7
65.73
65.18
63.78
61.39
58.14
54.37
50.56
47.14
44.37
42.22
40.47
38.78
36.88
34.63
32.08
29.39
26.77
24.34
22.17
20.27
18.62
17.21
15.99
14.83
13.49
11.68
9.14
5.67
1.24
-4.09
-10.18
-16.89
-24.09
-31.61
-39.22
-46.72
-53.94
-60.89
-67.85
-75.26
-83.6
-93.01
-103.04
-112.48
-119.46
-121.94
-118.4
-108.34
-92.61
-73.13
-52.33
-32.46
-15.09
-0.94
9.91
17.72
22.85
25.57
26.15
24.87
22.16
18.48
14.39
10.42
7.05
4.75
3.89
4.67
7.07
10.73
15.03
19.17
22.47
24.51
25.27
25.14
24.66
24.32
24.37
24.71
24.93
24.54
23.13
20.62
17.25
13.58
10.22
7.54
5.57
3.96
2.18
-0.23
-3.4
-7.17
-11.15
-14.93
-18.22
-21.06
-23.77
-26.92
-31.25
-37.36
-45.36
-54.66
-63.77
-70.71
-73.56
-71.09
-63.29
-51.31
-37.07
-22.62
-9.59
1.14
9.37
15.3
19.32
21.74
22.74
22.5
21.26
19.45
17.63
16.4
16.18
17.1
18.92
21.21
23.48
25.44
27.0
28.18
29.0
29.38
29.18
28.36
27.01
25.29
23.37
21.3
19.01
16.42
13.52
10.41
7.33
4.43
1.77
-0.74
-3.3
-6.1
-9.25
-12.84
-16.92
-21.53
-26.72
-32.5
-38.8
-45.44
-52.15
-58.53
-64.04
-68.11
-70.17
-69.76
-66.64
-60.84
-52.67
-42.71
-31.6
-20.04
-8.6
2.34
12.59
22.08
30.76
38.44
44.79
49.44
52.15
53.02
52.55
51.43
50.4
49.92
50.16
50.98
52.13
53.34
54.44
55.31
55.86
56.05
55.9
55.5
54.99
54.38
53.6
52.42
50.63
48.11
44.97
41.43
37.79
34.27
30.92
27.67
24.39
20.95
17.3
13.41
9.23
4.66
-0.44
-6.35
-13.42
-22.05
-32.53
-44.86
-58.48
-72.24
-84.59
-94.0
-99.51
-101.01
-99.22
-95.3
-90.4
-85.19
-79.93
-74.55
-69.03
-63.63
-58.74
-54.79
-51.87
-49.69
-47.61
-44.88
-40.95
-35.72
-29.48
-22.79
-16.18
-9.92
-4.01
1.71
7.3
12.56
17.13
20.57
22.66
23.46
23.34
22.69
21.9
21.17
20.52
19.84
18.94
17.67
15.93
13.76
11.31
8.88
6.7
4.79
2.9
0.44
-3.26
-8.7
-15.91
-24.24
-32.43
-38.86
-42.01
-40.87
-35.24
-25.78
-13.7
-0.45
12.67
24.66
34.89
42.97
48.71
52.02
53.04
52.02
49.42
45.77
41.63
37.5
33.79
30.77
28.61
27.34
26.92
27.22
28.06
29.2
30.32
31.01
30.87
29.61
27.15
23.69
19.66
15.47
11.47
7.78
4.36
1.09
-2.12
-5.3
-8.47
-11.61
-14.77
-17.99
-21.25
-24.49
-27.6
-30.48
-33.06
-35.36
-37.43
-39.44
-41.66
-44.44
-48.15
-52.95
-58.61
-64.36
-68.95
-70.98
-69.29
-63.38
-53.6
-41.0
-27.04
-13.2
-0.61
10.06
18.65
25.3
30.29
33.92
36.39
37.86
38.45
38.29
37.62
36.73
35.94
35.56
35.77
36.62
37.97
39.56
41.09
42.24
42.79
42.59
41.6
39.85
37.43
34.42
30.99
27.32
23.63
20.08
16.74
13.61
10.6
7.62
4.61
1.6
-1.41
-4.36
-7.23
-10.0
-12.58
-14.91
-16.9
-18.58
-20.07
-21.64
-23.63
-26.31
-29.93
-34.45
-39.55
-44.52
-48.32
-49.72
-47.75
-41.91
-32.45
-20.33
-6.94
6.29
18.24
28.26
36.12
41.88
45.68
47.68
48.03
47.01
45.0
42.51
40.03
37.89
36.25
35.0
34.0
33.13
32.37
31.78
31.36
30.96
30.3
29.13
27.26
24.75
21.82
18.77
15.88
13.32
11.14
9.26
7.56
5.83
3.86
1.49
-1.27
-4.27
-7.21
-9.76
-11.78
-13.33
-14.65
-16.07
-17.84
-20.07
-22.7
-25.62
-28.68
-31.75
-34.71
-37.52
-40.22
-42.93
-45.94
-49.55
-53.88
-58.69
-63.24
-66.39
-66.89
-63.8
-56.78
-46.28
-33.38
-19.44
-5.82
6.48
16.89
25.17
31.33
35.48
37.85
38.7
38.37
37.25
35.7
33.99
32.34
30.85
29.59
28.58
27.89
27.59
27.74
28.31
29.16
30.01
30.56
30.52
29.8
28.5
26.88
25.23
23.75
22.45
21.25
19.98
18.55
16.98
15.38
13.88
12.51
11.22
9.87
8.3
6.44
4.3
2.02
-0.27
-2.5
-4.72
-7.08
-9.77
-12.92
-16.55
-20.53
-24.66
-28.73
-32.61
-36.3
-39.94
-43.76
-48.03
-52.93
-58.42
-64.16
-69.41
-73.2
-74.54
-72.71
-67.53
-59.43
-49.38
-38.56
-28.1
-18.84
-11.22
-5.36
-1.12
1.79
3.74
5.09
6.15
7.15
8.21
9.37
10.68
12.2
14.07
16.45
19.43
22.97
26.86
30.74
34.2
36.88
38.51
38.9
37.92
35.43
31.38
25.86
19.17
11.84
4.44
-2.45
-8.5
-13.65
-18.09
-22.12
-25.98
-29.68
-33.01
-35.58
-37.1
-37.58
-37.47
-37.58
-38.82
-41.88
-47.08
-54.31
-63.13
-72.84
-82.52
-91.01
-96.99
-99.36
-97.5
-91.71
-83.05
-72.99
-62.82
-53.14
-43.77
-34.01
-23.11
-10.7
3.07
17.64
32.21
46.02
58.37
68.68
76.51
81.56
83.81
83.49
81.08
77.15
72.32
67.09
61.88
56.93
52.35
48.19
44.41
40.98
37.93
35.39
33.6
32.7
32.69
33.25
33.82
33.69
32.27
29.3
24.96
19.81
14.62
10.08
6.58
4.03
1.88
-0.68
-4.49
-10.1
-17.54
-26.16
-34.68
-41.58
-45.43
-45.31
-41.11
-33.44
-23.51
-12.7
-2.29
6.77
13.92
18.95
21.86
22.82
22.09
20.07
17.28
14.31
11.7
9.77
8.57
7.82
7.14
6.24
5.07
3.84
2.93
2.65
3.18
4.45
6.25
8.25
10.2
11.89
13.26
14.32
15.12
15.73
16.2
16.6
16.99
17.39
17.67
17.47
16.26
13.47
8.81
2.44
-4.96
-12.42
-18.95
-23.94
-27.34
-29.67
-31.81
-34.68
-38.78
-43.88
-48.93
-52.3
-52.31
-47.84
-38.8
-26.16
-11.65
2.82
15.73
26.3
34.43
40.53
45.14
48.76
51.69
54.04
55.76
56.78
57.0
56.48
55.35
53.85
52.22
50.65
49.2
47.76
46.11
43.83
40.48
35.62
29.02
20.73
11.07
0.68
-9.78
-19.7
-28.7
-36.67
-43.69
-49.92
-55.47
-60.43
-64.82
-68.68
-72.11
-75.21
-78.09
-80.77
-83.17
-85.15
-86.6
-87.53
-88.09
-88.57
-89.24
-90.33
-91.92
-93.88
-95.77
-96.79
-95.86
-91.9
-84.14
-72.48
-57.56
-40.62
-23.08
-6.17
9.34
23.13
35.07
45.04
52.86
58.34
61.49
62.54
61.99
60.43
58.32
55.97
53.47
50.82
48.02
45.16
42.32
39.59
36.95
34.27
31.35
27.97
23.93
19.1
13.47
7.12
0.29
-6.58
-12.94
-18.25
-22.14
-24.56
-25.78
-26.25
-26.38
-26.43
-26.45
-26.31
-25.84
-24.92
-23.53
-21.75
-19.76
-17.83
-16.12
-14.6
-12.91
-10.33
-5.99
0.84
10.46
22.56
36.31
50.57
64.2
76.25
86.12
93.5
98.42
101.04
101.66
100.54
97.92
94.01
89.08
83.56
77.98
72.85
68.52
65.05
62.25
59.84
57.61
55.48
53.48
51.56
49.52
47.0
43.61
39.17
33.79
27.89
22.05
16.76
12.26
8.46
5.0
1.48
-2.4
-6.71
-11.34
-16.04
-20.57
-24.75
-28.51
-31.89
-35.06
-38.3
-41.98
-46.5
-52.06
-58.53
-65.19
-70.82
-73.94
-73.23
-68.01
-58.51
-45.83
-31.59
-17.47
-4.67
6.11
14.69
21.16
25.65
28.29
29.21
28.65
26.97
24.71
22.35
20.3
18.82
18.0
17.75
17.9
18.28
18.74
19.24
19.76
20.28
20.67
20.69
20.1
18.73
16.6
13.93
11.01
8.12
5.39
2.87
0.5
-1.83
-4.19
-6.67
-9.37
-12.33
-15.55
-18.92
-22.26
-25.4
-28.2
-30.64
-32.81
-34.93
-37.29
-40.22
-43.96
-48.53
-53.54
-58.16
-61.23
-61.54
-58.18
-50.91
-40.21
-27.22
-13.41
-0.16
11.52
21.13
28.59
34.07
37.8
39.95
40.67
40.17
38.81
37.07
35.45
34.36
33.95
34.17
34.85
35.79
36.9
38.15
39.47
40.72
41.59
41.76
41.04
39.43
37.19
34.66
32.19
29.93
27.87
25.82
23.51
20.76
17.48
13.77
9.84
5.91
2.12
-1.58
-5.41
-9.64
-14.42
-19.69
-25.16
-30.46
-35.32
-39.65
-43.53
-47.15
-50.73
-54.52
-58.79
-63.62
-68.82
-73.64
-76.89
-77.19
-73.49
-65.5
-53.85
-39.92
-25.37
-11.69
0.11
9.52
16.44
20.96
23.36
23.94
23.07
21.1
18.38
15.18
11.72
8.22
4.85
1.77
-0.88
-3.02
-4.61
-5.73
-6.51
-7.17
-7.96
-9.07
-10.62
-12.7
-15.29
-18.38
-21.91
-25.76
-29.73
-33.62
-37.24
-40.49
-43.4
-46.12
-48.81
-51.57
-54.36
-57.01
-59.27
-60.87
-61.63
-61.52
-60.7
-59.52
-58.49
-58.08
-58.67
-60.23
-62.28
-63.86
-63.69
-60.54
-53.61
-42.85
-29.0
-13.4
2.34
16.84
29.18
38.99
46.4
51.77
55.44
57.62
58.33
57.56
55.42
52.21
48.41
44.61
41.25
38.57
36.62
35.34
34.65
34.57
35.05
35.96
36.96
37.57
37.34
36.03
33.67
30.55
27.01
23.24
19.18
14.61
9.32
3.32
-3.08
-9.34
-14.94
-19.62
-23.48
-26.95
-30.59
-34.88
-40.04
-45.97
-52.3
-58.54
-64.19
-68.92
-72.6
-75.36
-77.59
-79.91
-83.05
-87.57
-93.58
-100.52
-107.03
-111.26
-111.27
-105.64
-93.87
-76.57
-55.2
-31.65
-7.75
14.99
35.52
53.26
67.87
79.25
87.42
92.53
94.81
94.68
92.67
89.4
85.57
81.79
78.54
76.07
74.46
73.57
73.18
72.97
72.64
71.95
70.75
68.99
66.61
63.55
59.67
54.83
48.98
42.19
34.81
27.27
20.04
13.41
7.44
1.9
-3.55
-9.2
-15.14
-21.26
-27.3
-33.01
-38.34
-43.46
-48.7
-54.38
-60.72
-67.7
-75.1
-82.42
-88.95
-93.67
-95.46
-93.31
-86.66
-75.74
-61.55
-45.71
-29.89
-15.37
-2.68
8.4
18.59
28.72
39.39
50.83
62.84
75.03
86.86
97.76
107.15
114.51
119.55
122.43
123.77
124.53
125.64
127.6
130.22
132.78
134.38
134.46
133.04
130.62
127.74
124.7
121.22
116.65
110.23
101.49
90.41
77.41
63.19
48.45
33.75
19.37
5.44
-7.95
-20.65
-32.44
-43.09
-52.57
-61.17
-69.49
-78.26
-88.12
-99.36
-111.89
-125.21
-138.47
-150.51
-159.96
-165.42
-165.79
-160.6
-150.21
-135.83
-119.08
-101.68
-84.98
-69.83
-56.64
-45.48
-36.24
-28.74
-22.73
-17.94
-14.16
-11.22
-8.95
-7.15
-5.59
-3.98
-2.13
0.05
2.52
5.17
7.9
10.64
13.29
15.77
17.9
19.59
20.77
21.43
21.61
21.34
20.59
19.35
17.66
15.7
13.75
12.09
10.88
10.06
9.35
8.37
6.76
4.35
1.2
-2.42
-6.14
-9.65
-12.77
-15.54
-18.24
-21.32
-25.29
-30.52
-37.04
-44.29
-51.2
-56.22
-57.79
-54.85
-47.17
-35.54
-21.49
-6.85
6.8
18.46
27.77
34.85
39.97
43.32
45.02
45.16
43.97
41.9
39.51
37.4
36.0
35.45
35.69
36.46
37.46
38.44
39.19
39.55
39.33
38.3
36.2
32.85
28.23
22.55
16.26
9.88
3.91
-1.34
-5.83
-9.74
-13.39
-17.12
-21.12
-25.47
-30.01
-34.5
-38.6
-42.04
-44.69
-46.61
-48.12
-49.75
-52.1
-55.69
-60.66
-66.61
-72.46
-76.75
-77.92
-74.89
-67.34
-55.83
-41.62
-26.24
-11.16
2.54
14.17
23.45
30.36
35.09
37.93
39.23
39.4
38.81
37.89
36.99
36.42
36.36
36.83
37.74
38.9
40.09
41.15
41.91
42.25
42.04
41.2
39.67
37.47
34.65
31.33
27.65
23.78
19.9
16.18
12.7
9.42
6.22
2.9
-0.79
-5.07
-10.07
-15.72
-21.8
-27.91
-33.65
-38.63
-42.69
-45.93
-48.74
-51.7
-55.42
-60.33
-66.4
-73.03
-79.02
-82.84
-83.0
-78.47
-69.03
-55.32
-38.69
-20.74
-2.96
13.64
28.55
41.66
53.0
62.47
69.82
74.74
77.12
77.26
75.83
73.65
71.4
69.4
67.56
65.5
62.77
58.98
53.99
47.91
41.06
33.89
26.84
20.2
14.09
8.42
2.96
-2.47
-8.0
-13.64
-19.34
-25.03
-30.68
-36.21
-41.48
-46.33
-50.56
-54.02
-56.59
-58.23
-59.0
-59.04
-58.51
-57.51
-56.03
-54.02
-51.44
-48.46
-45.49
-43.27
-42.6
-44.09
-47.78
-52.97
-58.28
-61.93
-62.27
-58.25
-49.72
-37.49
-23.03
-8.07
5.91
17.91
27.53
34.8
40.0
43.51
45.7
46.95
47.72
48.51
49.7
51.49
53.72
55.99
57.89
59.2
59.95
60.35
60.54
60.36
59.46
57.35
53.76
48.76
42.75
36.33
30.22
25.12
21.59
19.98
20.18
21.53
22.94
23.16
21.21
16.75
10.13
2.16
-6.24
-14.43
-22.21
-29.68
-37.02
-44.39
-51.78
-59.16
-66.49
-73.65
-80.3
-85.78
-89.09
-89.14
-85.07
-76.66
-64.43
-49.53
-33.38
-17.23
-1.88
12.24
24.91
35.83
44.53
50.42
53.09
52.58
49.54
45.09
40.68
37.61
36.88
38.91
43.5
50.01
57.43
64.77
71.19
76.2
79.58
81.39
81.71
80.61
78.03
73.79
67.72
59.7
49.91
38.8
27.17
15.97
6.26
-1.07
-5.52
-7.1
-6.44
-4.67
-3.11
-2.91
-4.69
-8.43
-13.55
-19.22
-24.73
-29.77
-34.45
-39.23
-44.79
-51.81
-60.73
-71.47
-83.17
-94.12
-102.07
-104.85
-101.0
-90.32
-73.91
-53.79
-32.29
-11.47
7.27
23.16
35.96
45.68
52.5
56.69
58.72
59.17
58.69
57.79
56.68
55.22
53.05
49.88
45.77
41.26
37.26
34.77
34.51
36.67
40.75
45.83
50.81
54.79
57.21
57.98
57.29
55.53
53.02
49.94
46.3
41.9
36.46
29.75
21.72
12.57
2.85
-6.65
-14.95
-21.18
-24.77
-25.7
-24.63
-22.74
-21.4
-21.79
-24.54
-29.58
-36.18
-43.26
-49.6
-54.16
-56.19
-55.37
-51.8
-45.99
-38.8
-31.33
-24.63
-19.58
-16.59
-15.57
-16.01
-17.14
-18.31
-19.18
-19.83
-20.6
-21.85
-23.7
-25.89
-27.98
-29.55
-30.31
-30.08
-28.64
-25.56
-20.39
-12.9
-3.38
7.25
17.65
26.43
32.6
35.82
36.41
35.03
32.44
29.12
25.23
20.65
15.1
8.36
0.4
-8.53
-17.91
-27.07
-35.19
-41.45
-45.1
-45.78
-43.61
-39.36
-34.33
-30.0
-27.57
-27.46
-29.2
-31.59
-33.18
-32.88
-30.3
-25.83
-20.33
-14.74
-9.65
-5.23
-1.3
2.41
6.06
9.65
13.14
16.54
19.93
23.29
26.4
28.91
30.39
30.7
30.02
28.82
27.57
26.47
25.41
24.0
21.94
19.14
15.73
12.01
8.33
5.1
2.82
2.13
3.55
7.29
12.94
19.48
25.61
30.17
32.54
32.67
30.97
27.9
23.78
18.69
12.61
5.55
-2.36
-10.93
-19.93
-29.16
-38.35
-47.07
-54.78
-60.86
-64.79
-66.23
-65.05
-61.22
-54.8
-45.92
-34.93
-22.48
-9.55
2.73
13.25
21.21
26.26
28.45
28.07
25.56
21.41
16.24
10.87
6.33
3.63
3.47
5.95
10.52
16.13
21.69
26.43
30.13
32.94
35.1
36.53
36.84
35.41
31.8
26.0
18.45
10.03
1.69
-5.65
-11.25
-14.58
-15.41
-13.88
-10.59
-6.46
-2.55
0.28
1.6
1.38
-0.11
-2.64
-6.18
-10.95
-17.3
-25.48
-35.46
-46.82
-58.67
-69.77
-78.54
-83.34
-82.81
-76.29
-64.06
-47.36
-28.08
-8.26
10.29
26.33
39.12
48.25
53.5
54.79
52.27
46.44
38.21
28.8
19.57
11.84
6.63
4.6
6.01
10.69
18.23
28.04
39.44
51.68
63.93
75.21
84.44
90.61
92.95
91.13
85.31
76.1
64.38
51.18
37.39
23.73
10.56
-2.01
-14.05
-25.63
-36.73
-47.15
-56.63
-64.95
-72.05
-78.06
-83.25
-87.98
-92.52
-97.1
-101.81
-106.64
-111.33
-115.27
-117.6
-117.27
-113.33
-105.2
-92.88
-77.0
-58.68
-39.36
-20.37
-2.77
12.88
26.48
38.14
47.95
55.74
61.14
63.76
63.48
60.67
56.18
51.15
46.73
43.83
43.03
44.6
48.46
54.2
60.97
67.6
72.83
75.77
76.28
75.01
73.18
72.0
72.19
73.66
75.65
77.15
77.28
75.61
72.1
66.96
60.39
52.6
43.78
34.29
24.6
15.25
6.67
-0.97
-7.82
-14.18
-20.44
-26.88
-33.69
-40.95
-48.71
-56.78
-64.77
-71.89
-77.12
-79.45
-78.19
-73.29
-65.34
-55.37
-44.52
-33.75
-23.69
-14.75
-7.17
-1.18
3.06
5.55
6.48
6.28
5.45
4.44
3.54
2.93
2.68
2.84
3.45
4.52
5.97
7.65
9.39
11.07
12.6
13.96
15.05
15.74
15.83
15.16
13.7
11.6
9.13
6.58
4.09
1.67
-0.89
-3.76
-7.04
-10.65
-14.35
-17.85
-20.94
-23.59
-25.89
-28.08
-30.41
-33.1
-36.38
-40.36
-44.99
-49.98
-54.65
-58.02
-59.02
-56.81
-51.1
-42.28
-31.29
-19.42
-7.88
2.41
10.96
17.65
22.56
25.81
27.52
27.79
26.82
24.92
22.52
20.09
18.01
16.44
15.4
14.73
14.31
14.11
14.13
14.38
14.76
15.04
14.92
14.18
12.74
10.7
8.28
5.78
3.43
1.38
-0.35
-1.86
-3.3
-4.82
-6.5
-8.34
-10.21
-11.92
-13.27
-14.18
-14.7
-15.0
-15.32
-15.84
-16.61
-17.53
-18.45
-19.23
-19.87
-20.55
-21.6
-23.39
-26.38
-30.84
-36.77
-43.68
-50.55
-55.95
-58.4
-56.87
-51.15
-41.94
-30.6
-18.71
-7.57
2.01
9.81
15.98
20.84
24.73
27.9
30.57
32.94
35.18
37.45
39.78
42.08
44.14
45.71
46.64
46.99
46.98
46.81
46.51
45.74
43.94
40.52
35.22
28.19
19.94
11.14
2.31
-6.22
-14.26
-21.65
-28.14
-33.48
-37.55
-40.45
-42.48
-44.02
-45.31
-46.36
-47.05
-47.19
-46.75
-45.87
-44.82
-43.87
-43.32
-43.39
-44.4
-46.74
-50.7
-56.32
-63.05
-69.76
-74.92
-77.0
-75.03
-68.82
-59.06
-47.0
-34.05
-21.34
-9.57
0.93
10.12
17.99
24.46
29.42
32.86
34.92
36.04
36.77
37.63
38.92
40.56
42.17
43.29
43.57
42.96
41.69
40.17
38.71
37.42
36.14
34.57
32.44
29.62
26.14
22.23
18.13
14.08
10.26
6.83
3.93
1.67
0.07
-1.0
-1.79
-2.6
-3.64
-4.92
-6.28
-7.47
-8.29
-8.63
-8.48
-7.9
-7.01
-6.04
-5.43
-5.75
-7.58
-11.24
-16.5
-22.42
-27.52
-30.14
-28.86
-23.01
-12.88
0.39
15.11
29.51
42.23
52.53
60.33
66.01
70.1
73.01
74.9
75.79
75.61
74.43
72.41
69.84
66.96
63.93
60.8
57.63
54.53
51.71
49.39
47.67
46.46
45.41
44.09
42.12
39.24
35.5
31.2
26.78
22.69
19.19
16.27
13.71
11.13
8.2
4.81
1.01
-2.97
-6.83
-10.4
-13.59
-16.55
-19.49
-22.65
-26.19
-30.09
-34.11
-37.95
-41.36
-44.29
-47.11
-50.46
-55.04
-61.27
-68.92
-76.96
-83.75
-87.44
-86.62
-80.77
-70.36
-56.68
-41.32
-25.73
-10.98
2.24
13.47
22.33
28.57
32.16
33.44
33.06
31.87
30.61
29.8
29.66
30.18
31.18
32.53
34.03
35.6
37.18
38.76
40.32
41.82
43.14
44.14
44.72
44.88
44.73
44.42
44.0
43.48
42.8
41.87
40.64
39.13
37.34
35.22
32.77
30.0
27.03
24.08
21.31
18.78
16.38
13.89
11.11
7.95
4.37
0.3
-4.46
-10.2
-16.99
-24.42
-31.43
-36.54
-38.16
-35.35
-28.1
-17.47
-5.25
6.65
16.77
24.35
29.41
32.39
33.79
33.89
32.69
30.09
26.17
21.31
16.2
11.65
8.22
6.1
5.02
4.53
4.16
3.71
3.17
2.63
2.15
1.65
0.91
-0.36
-2.4
-5.35
-9.14
-13.56
-18.29
-23.0
-27.44
-31.54
-35.38
-39.13
-42.94
-46.84
-50.75
-54.51
-58.02
-61.25
-64.3
-67.39
-70.84
-74.99
-80.12
-86.38
-93.61
-101.16
-107.88
-112.24
-112.67
-108.05
-98.12
-83.64
-66.26
-48.04
-30.9
-16.16
-4.45
4.27
10.32
14.14
16.08
16.52
15.91
14.79
13.8
13.44
13.98
15.33
17.12
18.88
20.25
21.14
21.65
22.03
22.43
22.8
22.88
22.36
20.92
18.42
14.92
10.65
5.94
1.19
-3.26
-7.21
-10.69
-13.93
-17.28
-21.06
-25.39
-30.13
-34.93
-39.45
-43.46
-46.98
-50.23
-53.59
-57.47
-62.29
-68.37
-75.91
-84.68
-93.91
-102.23
-107.84
-108.96
-104.43
-94.2
-79.36
-61.9
-44.03
-27.59
-13.64
-2.54
5.87
11.85
15.61
17.3
17.12
15.43
12.75
9.64
6.58
3.94
1.99
0.95
1.08
2.55
5.35
9.23
13.7
18.11
21.83
24.34
25.37
24.84
22.87
19.64
15.5
10.79
5.86
0.98
-3.74
-8.34
-12.92
-17.63
-22.53
-27.57
-32.62
-37.53
-42.18
-46.51
-50.54
-54.39
-58.31
-62.67
-67.95
-74.51
-82.4
-91.05
-99.17
-104.98
-106.66
-102.9
-93.32
-78.58
-60.21
-40.1
-20.03
-1.39
15.02
28.83
39.98
48.53
54.54
58.12
59.47
58.94
57.09
54.67
52.43
51.03
50.83
51.86
53.91
56.61
59.54
62.39
64.84
66.66
67.66
67.71
66.8
65.02
62.52
59.45
55.9
51.92
47.57
42.95
38.24
33.64
29.3
25.24
21.36
17.44
13.26
8.69
3.71
-1.6
-7.08
-12.56
-17.95
-23.25
-28.66
-34.58
-41.48
-49.78
-59.52
-70.12
-80.24
-88.01
-91.49
-89.23
-80.87
-67.19
-49.89
-31.07
-12.55
4.4
19.2
31.73
42.03
50.17
56.17
60.1
62.23
63.01
63.0
62.78
62.76
63.1
63.77
64.59
65.44
66.32
67.38
68.78
70.53
72.38
73.86
74.39
73.54
71.17
67.49
62.96
58.13
53.44
49.12
45.18
41.43
37.65
33.65
29.35
24.81
20.24
15.92
12.04
8.71
5.79
2.97
-0.15
-3.92
-8.48
-13.69
-19.17
-24.44
-29.15
-33.23
-36.9
-40.69
-45.27
-51.2
-58.73
-67.5
-76.47
-83.96
-88.06
-87.11
-80.31
-67.95
-51.41
-32.66
-13.74
3.76
18.89
31.28
40.94
48.03
52.7
55.2
55.79
54.9
53.09
50.92
48.93
47.49
46.78
46.8
47.45
48.55
49.94
51.43
52.81
53.89
54.42
54.21
53.13
51.18
48.5
45.34
42.03
38.87
36.03
33.51
31.14
28.68
25.86
22.55
18.77
14.67
10.53
6.6
3.1
0.1
-2.55
-5.16
-8.17
-11.92
-16.47
-21.62
-26.94
-31.95
-36.4
-40.33
-44.14
-48.39
-53.65
-60.29
-68.33
-77.22
-85.84
-92.59
-95.7
-93.78
-86.26
-73.66
-57.47
-39.64
-22.05
-6.03
7.8
19.35
28.81
36.34
42.04
45.94
48.18
49.07
49.05
48.6
48.14
47.87
47.79
47.82
47.89
48.04
48.42
49.13
50.18
51.34
52.25
52.52
51.87
50.2
47.63
44.41
40.83
37.14
33.6
30.39
27.61
25.3
23.32
21.45
19.42
17.0
14.11
10.87
7.52
4.34
1.51
-0.94
-3.21
-5.6
-8.41
-11.82
-15.82
-20.2
-24.65
-28.87
-32.65
-35.97
-38.98
-41.97
-45.3
-49.35
-54.26
-59.81
-65.19
-69.05
-69.85
-66.28
-57.82
-44.94
-29.0
-11.79
5.03
20.27
33.34
44.14
52.78
59.42
64.25
67.51
69.62
71.14
72.74
74.99
78.29
82.72
88.07
94.0
100.17
106.43
112.78
119.29
125.78
131.75
136.3
138.45
137.5
133.31
126.4
117.62
107.78
97.34
86.43
75.08
63.47
51.94
40.64
29.23
16.68
1.55
-17.38
-40.47
-66.88
-94.78
-122.0
-146.67
-167.63
-184.53
-197.57
-207.28
-214.37
-219.62
-223.75
-227.18
-229.85
-231.02
-229.46
-223.79
-213.06
-197.13
-176.86
-153.82
-129.91
-106.78
-85.54
-66.69
-50.23
-35.94
-23.55
-12.87
-3.75
3.87
10.07
14.89
18.3
20.27
20.78
19.97
18.2
16.01
14.03
12.81
12.62
13.36
14.67
16.05
17.08
17.59
17.67
17.56
17.48
17.56
17.83
18.27
18.87
19.61
20.38
20.95
20.97
20.05
17.91
14.35
9.4
3.22
-3.87
-11.35
-18.61
-25.17
-30.78
-35.62
-40.21
-45.17
-50.97
-57.7
-65.01
-72.17
-78.1
-81.58
-81.38
-76.56
-66.81
-52.66
-35.56
-17.46
-0.42
13.98
24.98
32.59
37.42
40.34
42.11
43.28
44.11
44.65
44.94
45.05
45.09
45.21
45.46
45.86
46.36
47.06
48.23
50.23
53.28
57.18
61.27
64.55
66.03
65.14
61.95
57.17
51.74
46.56
42.02
37.97
33.88
29.19
23.68
17.62
11.66
6.53
2.56
-0.4
-2.93
-5.63
-8.67
-11.71
-14.0
-14.89
-14.25
-12.63
-11.05
-10.64
-12.28
-16.35
-22.81
-31.28
-41.05
-51.13
-60.24
-67.03
-70.35
-69.66
-65.18
-57.77
-48.55
-38.5
-28.15
-17.52
-6.38
5.53
18.18
31.17
43.82
55.3
64.92
72.25
77.21
80.09
81.31
81.35
80.54
79.03
76.8
73.79
69.93
65.23
59.78
53.68
47.06
40.02
32.69
25.19
17.67
10.29
3.24
-3.27
-9.07
-14.03
-18.15
-21.59
-24.64
-27.65
-30.86
-34.35
-38.04
-41.73
-45.23
-48.46
-51.42
-54.18
-56.78
-59.26
-61.62
-63.81
-65.64
-66.64
-66.07
-63.11
-57.14
-48.0
-36.28
-23.1
-9.9
2.04
11.92
19.57
25.31
29.67
33.14
35.95
38.13
39.58
40.23
40.19
39.72
39.29
39.36
40.34
42.41
45.5
49.24
52.98
55.99
57.64
57.61
55.94
52.99
49.28
45.25
41.18
37.15
33.16
29.19
25.25
21.32
17.32
13.18
8.83
4.42
0.26
-3.24
-5.73
-7.11
-7.57
-7.54
-7.53
-7.95
-9.08
-11.0
-13.67
-17.1
-21.37
-26.62
-32.89
-39.92
-47.04
-53.18
-57.17
-58.1
-55.56
-49.8
-41.43
-31.2
-19.73
-7.51
4.94
16.98
27.85
36.79
43.3
47.19
48.61
47.96
45.75
42.56
38.99
35.6
32.82
30.85
29.63
28.85
28.13
27.21
26.01
24.68
23.47
22.62
22.2
22.09
22.03
21.7
20.79
19.1
16.52
13.03
8.66
3.57
-2.04
-7.84
-13.5
-18.69
-23.22
-27.03
-30.17
-32.71
-34.65
-35.96
-36.56
-36.53
-36.14
-35.94
-36.64
-38.81
-42.69
-47.88
-53.4
-57.9
-60.03
-58.83
-54.0
-45.92
-35.53
-23.99
-12.46
-1.84
7.3
14.77
20.69
25.44
29.45
32.99
36.02
38.28
39.38
39.17
37.88
36.1
34.46
33.45
33.15
33.32
33.71
34.16
34.72
35.44
36.23
36.77
36.66
35.67
33.89
31.7
29.54
27.62
25.81
23.73
21.0
17.46
13.22
8.59
3.81
-1.01
-5.97
-11.18
-16.69
-22.36
-27.98
-33.37
-38.47
-43.33
-48.15
-53.05
-57.99
-62.75
-66.82
-69.62
-70.53
-69.09
-65.09
-58.55
-49.81
-39.44
-28.26
-17.23
-7.24
1.11
7.67
12.67
16.59
19.74
22.26
24.0
24.88
25.06
24.95
25.11
25.87
27.13
28.49
29.42
29.65
29.3
28.76
28.41
28.4
28.49
28.25
27.26
25.34
22.66
19.62
16.72
14.28
12.39
10.9
9.65
8.49
7.42
6.4
5.29
3.69
1.09
-2.94
-8.58
-15.61
-23.57
-31.99
-40.51
-49.02
-57.38
-65.18
-71.62
-75.61
-76.14
-72.67
-65.33
-54.89
-42.38
-28.88
-15.28
-2.3
9.29
18.68
25.09
28.08
27.72
24.71
20.17
15.31
11.14
8.27
6.88
6.87
7.92
9.68
11.76
13.86
15.72
17.15
18.03
18.27
17.92
17.07
15.94
14.67
13.29
11.6
9.28
6.01
1.7
-3.32
-8.45
-12.94
-16.23
-18.16
-18.95
-19.04
-18.81
-18.47
-17.97
-17.22
-16.08
-14.47
-12.25
-9.15
-4.89
0.63
7.18
14.2
21.07
27.45
33.43
39.3
45.06
49.97
52.54
51.07
44.48
32.95
18.11
2.52
-11.14
-20.84
-25.68
-25.87
-22.39
-16.64
-10.05
-3.83
1.15
4.41
5.92
5.97
5.11
3.93
2.87
2.07
1.32
0.05
-2.39
-6.49
-12.38
-19.63
-27.41
-34.68
-40.44
-44.03
-45.15
-43.97
-41.05
-37.26
-33.67
-31.44
-31.51
-34.29
-39.42
-45.58
-50.74
-52.67
-49.75
-41.6
-29.39
-15.46
-2.54
7.17
12.62
14.0
12.42
9.26
5.75
2.7
0.55
-0.56
-0.63
0.19
1.64
3.37
4.99
6.12
6.58
6.56
6.76
8.27
12.15
18.87
27.82
37.34
45.19
49.48
49.37
45.38
38.95
31.84
25.44
20.43
16.8
14.08
11.52
8.21
3.19
-4.38
-15.02
-28.6
-44.18
-59.93
-73.41
-82.09
-84.15
-79.1
-68.03
-53.2
-37.13
-21.73
-7.67
5.37
18.1
30.84
43.12
53.88
61.94
66.7
68.33
67.72
66.03
64.11
62.28
60.26
57.52
53.6
48.5
42.86
37.88
34.95
35.14
38.7
44.8
51.64
57.11
59.48
58.05
53.27
46.42
38.88
31.47
24.27
16.76
8.35
-1.26
-11.85
-22.95
-34.03
-44.76
-54.92
-64.48
-73.34
-81.46
-88.79
-95.34
-101.17
-106.31
-110.59
-113.54
-114.43
-112.33
-106.43
-96.39
-82.54
-65.91
-48.01
-30.46
-14.54
-1.05
9.69
17.71
23.08
25.99
26.7
25.91
24.65
24.2
25.51
28.78
33.19
37.15
39.0
37.64
33.09
26.31
18.68
11.26
4.36
-2.48
-9.95
-18.32
-27.17
-35.4
-41.83
-45.72
-47.16
-46.95
-46.0
-44.87
-43.36
-40.76
-36.39
-30.17
-22.96
-16.22
-11.4
-9.14
-8.83
-8.77
-6.82
-1.35
8.06
20.38
33.56
45.45
54.66
60.98
65.25
68.63
71.88
74.89
76.86
76.91
74.69
70.76
66.35
62.71
60.59
59.9
59.9
59.73
58.9
57.49
56.0
54.92
54.43
54.27
53.99
53.17
51.69
49.65
47.26
44.62
41.73
38.53
35.09
31.59
28.19
24.98
21.82
18.46
14.66
10.31
5.41
-0.0
-5.92
-12.26
-18.64
-24.19
-27.66
-27.74
-23.62
-15.4
-4.21
8.15
19.72
29.07
35.55
39.24
40.68
40.49
39.09
36.69
33.41
29.35
24.81
20.15
15.77
11.97
8.91
6.54
4.71
3.22
1.89
0.57
-0.82
-2.37
-4.13
-6.15
-8.34
-10.64
-12.88
-14.96
-16.87
-18.72
-20.69
-22.94
-25.56
-28.48
-31.61
-34.86
-38.23
-41.83
-45.85
-50.51
-56.03
-62.47
-69.54
-76.48
-82.08
-84.91
-83.81
-78.27
-68.69
-56.26
-42.63
-29.34
-17.46
-7.55
0.34
6.27
10.33
12.51
12.84
11.51
8.96
5.83
2.85
0.6
-0.7
-1.16
-1.19
-1.21
-1.47
-2.07
-2.97
-4.11
-5.56
-7.54
-10.22
-13.69
-17.82
-22.32
-26.9
-31.29
-35.39
-39.2
-42.82
-46.34
-49.91
-53.7
-57.83
-62.36
-67.11
-71.73
-75.75
-78.88
-81.11
-82.82
-84.65
-87.22
-90.95
-95.98
-102.12
-108.91
-115.56
-120.92
-123.61
-122.29
-116.04
-104.82
-89.5
-71.63
-52.85
-34.51
-17.36
-1.77
11.92
23.25
31.63
36.71
38.61
38.13
36.43
34.68
33.71
33.82
34.93
36.78
39.18
42.02
45.18
48.43
51.36
53.53
54.59
54.42
53.13
50.98
48.21
45.02
41.49
37.71
33.79
29.84
25.99
22.19
18.28
14.09
9.48
4.59
-0.29
-4.83
-8.78
-12.17
-15.21
-18.29
-21.77
-25.97
-31.16
-37.63
-45.5
-54.57
-64.08
-72.63
-78.46
-80.0
-76.32
-67.51
-54.63
-39.36
-23.44
-8.28
5.31
17.0
26.75
34.56
40.37
44.12
45.87
45.95
44.94
43.57
42.52
42.17
42.57
43.51
44.71
45.97
47.2
48.36
49.42
50.17
50.32
49.6
47.86
45.11
41.56
37.49
33.23
29.01
24.97
21.06
17.13
12.9
8.17
2.88
-2.84
-8.64
-14.15
-19.13
-23.57
-27.75
-32.11
-37.14
-43.18
-50.3
-58.14
-65.83
-72.06
-75.31
-74.22
-68.09
-57.15
-42.51
-25.92
-9.22
6.16
19.41
30.33
39.06
45.84
50.81
54.01
55.53
55.63
54.75
53.46
52.28
51.51
51.23
51.35
51.75
52.39
53.29
54.47
55.79
56.94
57.49
57.04
55.43
52.8
49.49
45.95
42.51
39.27
36.13
32.88
29.27
25.19
20.71
16.03
11.47
7.3
3.61
0.24
-3.11
-6.78
-10.97
-15.62
-20.48
-25.19
-29.51
-33.44
-37.19
-41.13
-45.73
-51.4
-58.31
-66.2
-74.23
-81.01
-84.83
-84.16
-78.18
-67.06
-51.95
-34.64
-16.99
-0.47
14.02
26.13
35.88
43.4
48.8
52.26
54.02
54.46
54.04
53.24
52.42
51.78
51.36
51.12
51.03
51.18
51.62
52.42
53.47
54.5
55.12
54.98
53.82
51.6
48.54
44.98
41.31
37.79
34.51
31.31
27.95
24.19
20.04
15.72
11.6
8.04
5.14
2.73
0.45
-2.07
-5.04
-8.4
-11.91
-15.27
-18.32
-21.08
-23.77
-26.68
-30.13
-34.42
-39.66
-45.63
-51.66
-56.57
-58.88
-57.21
-50.73
-39.54
-24.68
-7.86
9.08
24.67
38.01
48.81
57.14
63.2
67.14
69.14
69.47
68.5
66.68
64.47
62.13
59.74
57.15
54.22
50.86
47.17
43.37
39.66
36.09
32.49
28.54
23.87
18.29
11.89
4.98
-2.01
-8.68
-14.8
-20.34
-25.43
-30.21
-34.72
-38.9
-42.59
-45.68
-48.17
-50.31
-52.41
-54.81
-57.65
-60.8
-63.99
-66.89
-69.29
-71.22
-72.92
-74.74
-77.09
-80.3
-84.55
-89.69
-95.13
-99.8
-102.33
-101.4
-96.12
-86.42
-73.05
-57.41
-41.08
-25.4
-11.27
0.91
11.06
19.24
25.5
29.9
32.5
33.47
33.14
31.93
30.3
28.7
27.47
26.8
26.74
27.29
28.32
29.69
31.2
32.6
33.65
34.11
33.83
32.76
30.97
28.63
25.91
22.91
19.71
16.39
13.05
9.8
6.72
3.75
0.72
-2.58
-6.26
-10.31
-14.51
-18.6
-22.37
-25.79
-28.95
-32.11
-35.53
-39.53
-44.4
-50.28
-57.05
-64.16
-70.57
-74.89
-75.8
-72.43
-64.71
-53.4
-39.85
-25.6
-11.95
0.28
10.77
19.53
26.66
32.17
35.98
38.01
38.39
37.46
35.74
33.83
32.21
31.15
30.71
30.8
31.3
32.11
33.13
34.27
35.34
36.11
36.29
35.69
34.24
32.03
29.25
26.18
23.02
19.83
16.62
13.3
9.77
5.99
1.94
-2.36
-6.9
-11.61
-16.41
-21.18
-25.8
-30.18
-34.3
-38.26
-42.22
-46.39
-50.95
-56.04
-61.7
-67.78
-73.81
-78.95
-82.04
-81.83
-77.34
-68.33
-55.4
-40.04
-24.1
-9.34
3.08
12.74
19.83
24.72
27.71
28.91
28.37
26.38
23.55
20.74
18.77
18.17
19.02
21.09
24.11
27.98
32.84
38.86
46.04
54.05
62.26
69.93
76.46
81.55
85.23
87.69
89.19
89.84
89.6
88.33
85.9
82.27
77.53
71.79
65.07
57.2
47.94
37.03
24.46
10.45
-4.5
-19.81
-34.93
-49.23
-61.95
-71.99
-78.12
-79.29
-75.05
-65.94
-53.35
-39.18
-25.21
-12.66
-2.1
6.39
12.84
17.23
19.35
19.07
16.54
12.21
6.85
1.35
-3.54
-7.23
-9.46
-10.11
-9.24
-6.92
-3.28
1.4
6.74
12.14
16.93
20.51
22.44
22.6
21.13
18.44
15.07
11.64
8.67
6.49
5.09
4.16
3.21
1.84
-0.14
-2.58
-5.18
-7.66
-9.93
-12.15
-14.68
-17.94
-22.31
-28.06
-35.26
-43.61
-52.38
-60.45
-66.5
-69.44
-68.8
-64.8
-58.3
-50.46
-42.3
-34.46
-27.19
-20.43
-14.16
-8.43
-3.44
0.63
3.7
5.95
7.72
9.37
11.1
12.89
14.54
15.85
16.8
17.5
18.16
18.78
19.18
19.0
17.94
15.97
13.39
10.73
8.52
7.12
6.64
6.93
7.76
8.87
10.03
11.02
11.63
11.71
11.14
9.82
7.72
4.85
1.29
-2.77
-7.13
-11.56
-15.95
-20.28
-24.71
-29.47
-34.81
-40.89
-47.62
-54.49
-60.55
-64.53
-65.1
-61.31
-52.87
-40.32
-24.8
-7.83
9.11
24.81
38.39
49.28
57.2
62.11
64.2
63.86
61.63
58.07
53.68
48.87
43.95
39.11
34.5
30.22
26.39
23.19
20.79
19.37
18.97
19.48
20.59
21.87
22.87
23.18
22.57
20.96
18.48
15.41
12.16
9.11
6.52
4.45
2.73
0.96
-1.22
-4.06
-7.56
-11.49
-15.55
-19.51
-23.35
-27.29
-31.69
-36.8
-42.69
-49.06
-55.25
-60.34
-63.29
-63.22
-59.62
-52.54
-42.65
-31.02
-18.97
-7.57
2.44
10.85
17.75
23.36
27.82
31.05
32.86
33.1
31.82
29.34
26.18
22.98
20.29
18.56
18.06
18.87
20.88
23.88
27.4
30.98
34.16
36.56
37.98
38.33
37.62
35.95
33.45
30.26
26.53
22.37
17.84
13.12
8.47
4.19
0.54
-2.44
-4.95
-7.31
-9.82
-12.49
-15.06
-17.15
-18.55
-19.34
-19.9
-20.73
-22.26
-24.68
-27.89
-31.58
-35.21
-38.1
-39.47
-38.58
-34.89
-28.28
-19.13
-8.29
3.1
13.86
23.0
29.86
34.15
35.9
35.42
33.26
30.11
26.7
23.74
21.69
20.77
20.88
21.71
22.9
24.14
25.32
26.48
27.73
29.09
30.43
31.46
31.86
31.41
30.1
28.1
25.67
23.03
20.27
17.34
14.14
10.57
6.61
2.38
-1.87
-5.87
-9.45
-12.63
-15.67
-18.99
-22.91
-27.45
-32.24
-36.64
-40.0
-42.0
-42.84
-43.17
-43.88
-45.68
-48.98
-53.65
-59.17
-64.68
-69.17
-71.7
-71.63
-68.83
-63.8
-57.58
-51.43
-46.41
-43.13
-41.51
-41.07
-41.12
-41.13
-40.87
-40.42
-39.91
-39.44
-38.87
-37.84
-35.94
-32.7
-27.81
-21.14
-12.74
-2.8
8.3
20.0
31.59
42.21
51.08
57.68
61.93
64.31
65.7
67.1
69.35
72.83
77.39
82.44
87.17
90.75
92.52
92.17
89.78
85.77
80.85
75.7
70.79
66.18
61.61
56.56
50.62
43.57
35.6
27.24
19.39
13.14
9.57
9.44
12.94
19.56
28.25
37.71
46.84
54.96
61.86
67.62
72.37
76.2
79.06
80.97
82.03
82.44
82.44
82.23
81.96
81.75
81.72
81.99
82.63
83.66
84.99
86.42
87.67
88.41
88.31
87.1
84.62
80.89
76.04
70.28
63.81
56.74
49.07
40.81
31.95
22.56
12.79
2.85
-7.03
-16.65
-25.83
-34.45
-42.48
-49.99
-57.18
-64.36
-71.93
-80.26
-89.57
-99.77
-110.3
-120.09
-127.72
-131.74
-131.04
-125.27
-114.98
-101.49
-86.49
-71.58
-57.85
-45.76
-35.31
-26.34
-18.79
-12.84
-8.7
-6.47
-5.93
-6.57
-7.77
-9.04
-10.07
-10.8
-11.23
-11.37
-11.17
-10.6
-9.73
-8.74
-7.9
-7.47
-7.62
-8.45
-9.94
-12.08
-14.76
-17.87
-21.2
-24.58
-27.85
-30.96
-33.97
-36.97
-40.12
-43.42
-46.84
-50.25
-53.47
-56.39
-58.92
-61.07
-62.92
-64.62
-66.39
-68.57
-71.52
-75.56
-80.78
-86.79
-92.66
-97.02
-98.42
-95.77
-88.74
-77.9
-64.58
-50.49
-37.17
-25.73
-16.68
-10.05
-5.58
-3.01
-2.09
-2.62
-4.34
-6.83
-9.61
-12.2
-14.24
-15.62
-16.43
-16.87
-17.12
-17.3
-17.42
-17.49
-17.57
-17.81
-18.39
-19.55
-21.44
-24.08
-27.39
-31.13
-35.03
-38.78
-42.14
-45.03
-47.5
-49.73
-51.93
-54.24
-56.64
-58.97
-60.96
-62.41
-63.23
-63.53
-63.58
-63.82
-64.72
-66.76
-70.28
-75.21
-80.91
-86.17
-89.39
-89.01
-84.07
-74.44
-60.95
-45.05
-28.39
-12.43
1.84
13.86
23.42
30.52
35.24
37.75
38.35
37.45
35.64
33.52
31.68
30.5
30.13
30.46
31.28
32.37
33.66
35.16
36.86
38.66
40.22
41.07
40.81
39.22
36.47
33.04
29.52
26.3
23.47
20.77
17.71
13.9
9.15
3.57
-2.5
-8.67
-14.67
-20.39
-25.86
-31.21
-36.63
-42.32
-48.62
-55.89
-64.38
-73.98
-83.95
-92.86
-98.91
-100.34
-96.03
-85.85
-70.66
-52.03
-31.75
-11.44
7.68
24.79
39.44
51.34
60.39
66.74
70.74
72.95
74.08
74.78
75.48
76.39
77.46
78.59
79.72
80.95
82.43
84.26
86.38
88.49
90.12
90.83
90.35
88.64
85.89
82.34
78.21
73.64
68.65
63.23
57.38
51.16
44.7
38.15
31.63
25.19
18.73
12.11
5.18
-2.11
-9.66
-17.18
-24.4
-31.09
-37.24
-43.11
-49.2
-56.15
-64.57
-74.79
-86.51
-98.71
-109.64
-117.22
-119.64
-115.94
-106.29
-91.96
-74.88
-57.03
-39.99
-24.78
-11.81
-1.18
7.16
13.27
17.21
19.11
19.26
18.23
16.82
15.89
16.24
18.32
22.27
27.83
34.5
41.63
48.57
54.71
59.68
63.38
65.94
67.66
68.81
69.49
69.63
69.14
68.03
66.48
64.78
63.05
61.15
58.63
54.94
49.71
43.03
35.39
27.53
20.08
13.42
7.54
2.16
-3.1
-8.61
-14.72
-21.69
-29.58
-38.01
-46.01
-52.08
-54.53
-52.0
-44.0
-31.08
-14.65
3.42
21.38
37.92
52.25
64.02
73.14
79.66
83.68
85.43
85.22
83.43
80.51
76.89
72.98
69.14
65.72
63.04
61.44
61.15
62.15
64.14
66.42
68.14
68.44
66.74
62.89
57.29
50.63
43.79
37.54
32.26
27.9
23.94
19.62
14.25
7.52
-0.32
-8.45
-15.93
-22.12
-27.1
-31.76
-37.5
-45.73
-57.3
-72.15
-89.24
-106.73
-122.41
-134.04
-139.75
-138.41
-129.75
-114.52
-94.35
-71.44
-48.12
-26.37
-7.49
8.0
20.25
29.84
37.39
43.41
48.08
51.4
53.31
53.85
53.19
51.64
49.5
46.99
44.25
41.36
38.47
35.77
33.44
31.59
30.13
28.8
27.31
25.45
23.23
20.87
18.67
16.9
15.62
14.63
13.58
12.07
9.78
6.61
2.72
-1.52
-5.58
-8.91
-11.17
-12.32
-12.75
-13.24
-14.77
-18.27
-24.27
-32.57
-42.18
-51.44
-58.44
-61.58
-60.07
-54.15
-44.94
-34.09
-23.16
-13.21
-4.65
2.65
8.96
14.4
18.79
21.75
22.94
22.37
20.44
17.89
15.57
14.21
14.26
15.87
18.95
23.18
28.15
33.35
38.3
42.6
45.95
48.25
49.49
49.78
49.19
47.77
45.55
42.59
39.02
35.12
31.23
27.66
24.51
21.55
18.32
14.31
9.24
3.19
-3.35
-9.75
-15.43
-20.14
-23.92
-27.11
-30.18
-33.64
-37.93
-43.24
-49.3
-55.2
-59.54
-60.77
-57.73
-50.23
-39.14
-26.16
-13.2
-1.74
7.53
14.6
19.8
23.41
25.36
25.39
23.3
19.32
14.13
8.77
4.34
1.63
0.95
2.18
4.9
8.61
12.75
16.8
20.25
22.64
23.68
23.36
21.89
19.63
16.89
13.87
10.57
7.05
3.43
-0.01
-3.03
-5.54
-7.79
-10.19
-13.18
-16.97
-21.38
-25.97
-30.26
-33.95
-37.0
-39.64
-42.16
-44.82
-47.78
-51.02
-54.34
-57.27
-59.01
-58.6
-55.12
-48.07
-37.57
-24.41
-9.8
4.9
18.53
30.19
39.35
45.69
49.2
50.23
49.52
48.16
47.37
48.07
50.68
54.97
60.2
65.4
69.76
72.73
74.14
74.02
72.53
69.89
66.33
62.06
57.25
51.94
46.08
39.52
32.22
24.24
15.73
6.86
-2.32
-11.89
-21.92
-32.43
-43.29
-54.27
-65.19
-75.91
-86.42
-96.66
-106.48
-115.62
-123.85
-131.05
-137.33
-142.92
-148.11
-153.15
-158.08
-162.73
-166.59
-168.78
-168.17
-163.57
-154.24
-140.09
-121.8
-100.66
-78.24
-55.92
-34.79
-15.6
1.22
15.46
27.08
36.34
43.66
49.6
54.67
59.22
63.34
66.87
69.5
70.87
70.75
69.22
66.66
63.83
61.55
60.47
60.79
62.13
63.63
64.22
62.93
59.24
53.18
45.31
36.49
27.65
19.48
12.29
6.02
0.32
-5.18
-10.77
-16.5
-22.2
-27.54
-32.19
-35.92
-38.7
-40.73
-42.39
-44.19
-46.59
-49.8
-53.66
-57.49
-60.22
-60.69
-57.98
-51.75
-42.38
-30.87
-18.46
-6.32
4.67
14.05
21.68
27.61
31.9
34.6
35.79
35.65
34.55
33.0
31.66
31.11
31.73
33.65
36.73
40.69
45.31
50.45
56.08
62.18
68.56
74.79
80.26
84.31
86.43
86.44
84.45
80.9
76.36
71.39
66.46
61.83
57.47
53.14
48.48
43.09
36.71
29.25
20.82
11.72
2.39
-6.72
-15.29
-23.25
-30.89
-38.82
-47.81
-58.51
-71.26
-85.96
-102.04
-118.44
-133.65
-145.81
-153.04
-153.98
-148.16
-136.32
-120.19
-101.96
-83.62
-66.48
-51.08
-37.38
-25.09
-13.98
-3.95
5.0
12.94
20.01
26.45
32.52
38.41
44.23
49.96
55.59
61.11
66.56
71.88
76.81
80.9
83.57
84.31
83.02
80.03
76.09
72.05
68.46
65.33
62.08
57.72
51.23
42.05
30.18
16.36
1.72
-12.53
-25.41
-36.33
-45.07
-51.67
-56.33
-59.36
-61.2
-62.39
-63.43
-64.56
-65.62
-66.08
-65.36
-63.18
-59.75
-55.65
-51.33
-46.69
-40.85
-32.59
-21.0
-6.15
10.74
27.68
42.74
54.77
63.68
70.12
74.86
78.28
80.24
80.32
78.3
74.44
69.42
64.08
59.11
54.81
51.2
48.08
45.33
42.85
40.66
38.75
37.02
35.29
33.22
30.51
26.91
22.41
17.26
11.91
6.83
2.29
-1.72
-5.46
-9.17
-12.94
-16.56
-19.67
-21.96
-23.41
-24.27
-25.0
-26.03
-27.6
-29.76
-32.37
-35.22
-38.08
-40.8
-43.34
-45.91
-48.96
-53.0
-58.38
-64.86
-71.48
-76.7
-78.84
-76.68
-69.97
-59.56
-47.05
-34.31
-22.88
-13.62
-6.77
-2.07
0.86
2.42
2.93
2.67
1.95
1.08
0.34
-0.05
0.08
0.89
2.54
5.2
8.99
13.91
19.7
25.96
32.15
37.67
42.1
45.13
46.73
47.06
46.42
45.09
43.39
41.44
39.31
36.94
34.28
31.27
27.97
24.54
21.16
17.96
14.94
11.9
8.54
4.62
0.08
-4.91
-10.02
-14.93
-19.49
-23.82
-28.25
-33.18
-38.98
-45.77
-53.36
-61.12
-67.99
-72.61
-73.61
-69.99
-61.49
-48.75
-33.14
-16.4
-0.19
14.25
26.2
35.42
41.96
46.0
47.8
47.69
46.08
43.45
40.3
37.1
34.24
31.98
30.43
29.63
29.54
30.05
30.99
32.13
33.23
34.03
34.28
33.78
32.4
30.08
26.89
23.03
18.82
14.66
10.83
7.44
4.34
1.21
-2.26
-6.22
-10.5
-14.76
-18.58
-21.7
-24.13
-26.14
-28.17
-30.71
-34.17
-38.8
-44.61
-51.28
-58.07
-63.75
-66.94
-66.36
-61.26
-51.72
-38.6
-23.35
-7.58
7.31
20.31
30.9
38.94
44.54
47.92
49.37
49.17
47.63
45.11
42.03
38.89
36.21
34.41
33.71
34.14
35.51
37.53
39.81
41.89
43.27
43.44
42.01
38.84
34.15
28.53
22.74
17.51
13.26
9.92
7.01
3.73
-0.67
-6.57
-13.77
-21.52
-28.79
-34.66
-38.75
-41.36
-43.32
-45.68
-49.27
-54.36
-60.58
-66.98
-72.17
-74.71
-73.35
-67.41
-57.09
-43.44
-28.2
-13.23
-0.09
10.43
18.22
23.66
27.3
29.52
30.58
30.59
29.74
28.34
26.78
25.41
24.43
23.9
23.74
23.88
24.3
25.04
26.07
27.32
28.53
29.33
29.36
28.39
26.39
23.56
20.25
16.81
13.53
10.47
7.51
4.42
0.93
-3.13
-7.8
-12.91
-18.19
-23.31
-27.95
-31.94
-35.27
-38.2
-41.11
-44.52
-48.89
-54.51
-61.3
-68.69
-75.58
-80.49
-81.92
-78.79
-70.88
-58.9
-44.31
-28.83
-14.02
-0.89
10.09
18.8
25.33
29.72
32.05
32.49
31.35
29.13
26.37
23.61
21.27
19.65
18.9
19.07
20.17
22.11
24.76
27.82
30.85
33.33
34.75
34.83
33.55
31.18
28.18
25.02
21.99
19.18
16.48
13.69
10.66
7.35
3.86
0.39
-2.82
-5.61
-7.9
-9.75
-11.31
-12.75
-14.2
-15.72
-17.31
-18.98
-20.79
-22.86
-25.43
-28.75
-33.04
-38.39
-44.51
-50.77
-56.01
-58.88
-58.1
-52.99
-43.7
-31.27
-17.29
-3.44
8.98
19.25
27.15
32.73
36.14
37.47
36.88
34.68
31.33
27.47
23.71
20.52
18.19
16.83
16.4
16.82
18.0
19.82
22.09
24.53
26.74
28.31
28.98
28.68
27.62
26.14
24.56
23.02
21.38
19.27
16.37
12.49
7.77
2.62
-2.5
-7.17
-11.26
-14.85
-18.24
-21.81
-25.92
-30.86
-36.65
-42.97
-48.99
-53.51
-55.18
-52.99
-46.58
-36.44
-23.73
-9.84
3.93
16.7
27.9
37.21
44.33
48.99
51.01
50.51
47.97
44.14
39.91
36.07
33.13
31.28
30.42
30.31
30.72
31.54
32.78
34.54
36.81
39.46
42.14
44.39
45.76
45.98
44.97
42.96
40.32
37.46
34.64
31.89
29.05
25.89
22.25
18.12
13.66
9.12
4.69
0.46
-3.64
-7.81
-12.3
-17.43
-23.4
-30.23
-37.49
-44.29
-49.37
-51.47
-49.71
-43.89
-34.59
-22.99
-10.53
1.47
12.02
20.63
27.18
31.78
34.57
35.6
34.82
32.08
27.4
21.05
13.63
5.98
-1.08
-6.99
-11.59
-15.1
-17.99
-20.71
-23.55
-26.58
-29.72
-32.81
-35.68
-38.21
-40.18
-41.36
-41.5
-40.45
-38.28
-35.33
-32.2
-29.54
-27.99
-27.88
-29.24
-31.77
-34.92
-38.12
-40.9
-42.99
-44.43
-45.47
-46.51
-48.07
-50.59
-54.4
-59.49
-65.4
-71.16
-75.48
-76.99
-74.69
-68.25
-58.18
-45.62
-32.05
-18.9
-7.21
2.46
9.96
15.36
18.85
20.57
20.72
19.63
17.79
15.78
14.17
13.32
13.31
14.07
15.45
17.42
20.03
23.41
27.54
32.22
36.98
41.27
44.63
46.79
47.78
47.79
47.05
45.74
43.88
41.33
37.91
33.47
27.98
21.54
14.3
6.48
-1.69
-9.94
-18.0
-25.57
-32.48
-38.68
-44.37
-49.87
-55.58
-61.78
-68.49
-75.46
-82.1
-87.63
-91.19
-92.11
-90.04
-85.11
-77.91
-69.38
-60.56
-52.39
-45.54
-40.35
-36.87
-34.96
-34.41
-35.01
-36.52
-38.72
-41.33
-44.09
-46.76
-49.12
-51.0
-52.2
-52.41
-51.32
-48.69
-44.51
-39.07
-32.9
-26.61
-20.59
-14.95
-9.56
-4.27
0.97
6.03
10.72
15.0
19.03
23.07
27.32
31.7
35.78
38.92
40.51
40.17
37.94
34.11
29.04
23.03
16.31
9.16
2.14
-3.88
-7.82
-8.68
-5.91
0.43
9.64
20.66
32.4
43.88
54.38
63.31
70.16
74.51
76.2
75.47
72.92
69.45
65.95
63.08
61.15
60.1
59.65
59.41
59.02
58.23
56.92
55.18
53.1
50.73
47.97
44.51
39.98
34.09
26.87
18.69
10.16
2.02
-5.13
-10.9
-15.16
-18.02
-19.8
-20.95
-22.05
-23.8
-26.86
-31.78
-38.77
-47.46
-56.71
-64.64
-68.96
-67.54
-59.07
-43.54
-22.24
2.66
28.73
54.0
77.22
97.85
115.75
130.94
143.48
153.53
161.53
168.14
174.13
180.19
186.71
193.79
201.37
209.32
217.56
226.04
234.71
243.46
252.18
260.76
269.05
276.87
283.9
289.67
293.52
294.64
292.2
285.44
273.84
257.34
236.43
212.11
185.73
158.73
132.42
107.75
85.22
64.88
46.3
28.65
10.84
-8.15
-28.78
-50.53
-71.79
-90.29
-104.03
-112.15
-115.5
-116.47
-118.08
-122.85
-131.8
-144.19
-157.9
-170.22
-178.75
-181.92
-179.32
-171.75
-161.09
-149.88
-140.53
-134.46
-131.39
-129.48
-126.1
-119.18
-108.23
-94.71
-81.33
-70.82
-64.78
-63.17
-64.75
-67.86
-71.34
-74.75
-78.3
-82.33
-86.89
-91.58
-95.83
-99.21
-101.66
-103.57
-105.47
-107.6
-109.65
-110.74
-109.79
-106.04
-99.52
-91.11
-82.23
-74.28
-68.04
-63.44
-59.8
-56.22
-51.95
-46.66
-40.35
-33.3
-25.86
-18.44
-11.34
-4.7
1.57
7.71
13.91
20.14
25.92
30.49
33.02
32.92
30.03
24.62
17.19
8.26
-1.58
-11.73
-21.41
-29.78
-36.11
-39.97
-41.46
-41.19
-40.06
-38.99
-38.64
-39.22
-40.63
-42.56
-44.74
-47.11
-49.7
-52.58
-55.71
-58.9
-61.96
-64.81
-67.69
-70.98
-75.14
-80.4
-86.66
-93.52
-100.36
-106.58
-111.72
-115.66
-118.67
-121.32
-124.35
-128.38
-133.67
-139.95
-146.56
-152.84
-158.5
-163.84
-169.69
-177.18
-187.35
-201.01
-218.42
-239.1
-261.54
-283.12
-300.39
-309.92
-309.36
-298.21
-277.98
-251.66
-222.67
-193.84
-166.98
-142.88
-121.65
-102.99
-86.42
-71.24
-56.7
-42.25
-27.86
-14.0
-1.6
8.41
15.56
20.03
22.81
25.53
30.21
38.68
51.84
68.87
87.03
102.17
110.09
108.14
96.34
77.32
55.12
33.42
14.28
-2.16
-16.81
-30.34
-42.37
-51.49
-56.01
-54.82
-47.79
-35.71
-19.67
-0.72
20.23
42.37
64.7
86.08
105.4
121.85
135.08
145.2
152.56
157.61
160.76
162.31
162.43
161.06
158.02
153.07
146.26
138.09
129.52
121.65
115.27
110.43
106.36
101.88
95.96
88.21
79.19
70.08
62.16
56.28
52.5
50.17
48.35
46.18
43.2
39.39
35.03
30.43
25.75
20.91
15.56
9.22
1.29
-8.75
-21.24
-36.24
-53.37
-71.8
-90.3
-107.45
-121.95
-133.0
-140.46
-144.83
-146.86
-147.03
-145.18
-140.53
-132.03
-118.92
-101.21
-79.72
-55.85
-31.06
-6.57
16.75
38.09
56.6
71.24
81.04
85.49
84.95
80.74
74.97
69.94
67.56
68.81
73.58
80.94
89.65
98.69
107.53
116.19
124.96
134.04
143.39
152.62
161.09
168.07
172.96
175.25
174.7
171.32
165.47
157.92
149.67
141.73
134.74
128.66
122.72
115.79
106.84
95.46
82.03
67.56
53.23
39.83
27.37
15.04
1.55
-14.26
-32.81
-53.27
-73.57
-90.87
-102.41
-106.4
-102.69
-92.8
-79.42
-65.45
-53.15
-43.61
-36.73
-31.67
-27.33
-22.84
-17.67
-11.56
-4.44
3.62
12.34
21.13
29.12
35.44
39.52
41.3
41.32
40.49
39.7
39.41
39.54
39.51
38.62
36.38
32.79
28.4
24.0
20.35
17.75
16.03
14.6
12.81
10.28
7.0
3.3
-0.41
-3.81
-6.74
-9.22
-11.32
-13.19
-15.18
-17.85
-21.87
-27.68
-34.97
-42.44
-47.92
-49.07
-44.26
-33.22
-17.17
1.66
20.93
38.89
54.66
67.99
78.75
86.57
90.94
91.53
88.59
83.07
76.33
69.66
63.84
58.95
54.53
49.96
44.84
39.11
33.11
27.37
22.47
18.96
17.27
17.65
20.01
23.88
28.31
32.09
34.02
33.37
30.06
24.74
18.44
12.27
7.09
3.34
1.11
0.14
-0.13
-0.54
-2.2
-6.07
-12.66
-21.59
-31.43
-40.09
-45.39
-45.76
-40.77
-31.19
-18.57
-4.79
8.5
20.15
29.57
36.62
41.32
43.81
44.16
42.45
38.79
33.43
26.77
19.4
11.96
5.03
-0.95
-5.87
-9.76
-12.81
-15.13
-16.74
-17.59
-17.68
-17.19
-16.51
-16.17
-16.69
-18.38
-21.23
-24.97
-29.16
-33.34
-37.2
-40.58
-43.59
-46.44
-49.48
-53.09
-57.62
-63.15
-69.32
-75.2
-79.35
-80.1
-76.07
-66.64
-52.24
-34.21
-14.38
5.48
24.03
40.58
54.83
66.72
76.17
83.02
87.12
88.41
87.12
83.75
79.1
74.24
70.27
68.09
68.14
70.29
73.99
78.45
83.06
87.49
91.68
95.69
99.45
102.69
105.06
106.32
106.62
106.51
106.78
108.13
110.89
114.94
119.72
124.53
128.73
131.87
133.71
134.11
133.12
131.01
128.35
125.96
124.56
124.37
124.78
124.32
120.97
112.74
98.22
76.92
49.24
16.24
-20.72
-60.23
-100.89
-141.3
-180.09
-215.97
-247.87
-275.06
-297.23
-314.44
-326.96
-335.12
-339.16
-339.2
-335.34
-327.79
-316.85
-302.98
-286.69
-268.43
-248.64
-227.76
-206.33
-184.95
-164.22
-144.5
-125.86
-107.98
-90.38
-72.61
-54.57
-36.55
-19.32
-3.79
9.12
18.77
24.93
27.84
28.24
27.29
26.51
27.38
31.08
38.16
48.43
61.06
74.82
88.5
101.09
111.86
120.29
125.96
128.48
127.64
123.5
116.6
107.83
98.33
89.03
80.44
72.46
64.58
56.22
47.14
37.59
28.3
20.11
13.63
9.01
5.96
3.89
2.2
0.5
-1.39
-3.37
-5.27
-6.92
-8.24
-9.24
-10.08
-10.95
-12.03
-13.5
-15.46
-17.91
-20.72
-23.62
-26.25
-28.25
-29.36
-29.55
-29.04
-28.3
-27.91
-28.36
-29.84
-32.03
-33.97
-34.22
-31.16
-23.6
-11.19
5.33
24.23
43.42
60.99
75.77
87.41
96.18
102.59
107.01
109.6
110.42
109.64
107.64
104.96
102.06
99.19
96.35
93.42
90.39
87.4
84.71
82.42
80.44
78.37
75.81
72.57
68.82
65.08
61.85
59.42
57.55
55.72
53.27
49.75
45.06
39.48
33.53
27.84
22.92
19.14
16.57
15.03
14.14
13.44
12.58
11.3
9.45
6.78
2.88
-2.69
-10.12
-18.89
-27.61
-34.22
-36.57
-33.16
-23.61
-8.77
9.65
29.62
49.27
67.15
82.25
93.87
101.69
105.71
106.37
104.41
100.71
96.0
90.69
84.82
78.13
70.33
61.2
50.69
39.04
26.62
13.93
1.47
-10.34
-21.2
-31.0
-39.78
-47.78
-55.34
-62.9
-70.85
-79.4
-88.52
-97.91
-107.13
-115.72
-123.39
-130.02
-135.72
-140.77
-145.54
-150.42
-155.72
-161.61
-168.02
-174.46
-179.91
-182.69
-180.7
-171.93
-155.14
-130.46
-99.65
-65.71
-32.13
-1.95
22.84
41.5
54.29
61.91
65.2
64.93
61.91
57.01
51.22
45.49
40.58
36.92
34.63
33.63
33.69
34.49
35.56
36.31
35.96
33.74
29.12
22.02
13.01
3.24
-5.72
-12.34
-15.44
-14.49
-9.61
-1.48
9.03
21.06
34.0
47.44
61.08
74.58
87.47
99.15
108.91
116.12
120.23
120.94
118.12
111.88
102.42
89.94
74.74
57.29
38.47
19.67
2.62
-10.98
-20.02
-24.27
-24.49
-22.14
-18.82
-15.79
-13.77
-12.91
-13.05
-13.9
-15.23
-16.85
-18.55
-20.08
-21.17
-21.63
-21.38
-20.66
-19.94
-19.95
-21.43
-24.9
-30.52
-37.96
-46.45
-55.03
-62.82
-69.19
-73.98
-77.4
-79.88
-81.94
-83.91
-85.99
-88.14
-90.3
-92.53
-95.09
-98.42
-102.96
-108.94
-116.17
-124.1
-131.99
-139.23
-145.62
-151.42
-157.13
-163.31
-170.2
-177.59
-184.64
-189.83
-191.16
-186.45
-174.02
-153.37
-125.61
-93.38
-60.14
-29.21
-2.84
18.04
33.63
44.63
51.72
55.41
56.16
54.68
52.0
49.31
47.67
47.71
49.58
53.04
57.69
63.14
69.06
75.18
81.24
86.91
91.8
95.52
97.69
98.07
96.61
93.47
88.91
83.13
76.12
67.65
57.4
45.17
31.11
15.74
-0.16
-15.85
-30.77
-44.76
-57.93
-70.61
-83.2
-96.06
-109.56
-123.93
-139.22
-155.0
-170.24
-183.4
-192.67
-196.51
-194.1
-185.71
-172.55
-156.51
-139.7
-123.98
-110.83
-101.25
-95.83
-94.73
-97.74
-104.31
-113.71
-125.1
-137.66
-150.59
-163.06
-174.17
-182.94
-188.41
-189.66
-186.01
-177.07
-162.82
-143.75
-120.8
-95.35
-68.86
-42.63
-17.56
5.83
27.14
45.82
61.08
71.94
77.66
78.01
73.55
65.42
55.11
44.02
33.29
23.61
15.38
8.62
3.15
-1.5
-6.05
-11.41
-18.57
-28.35
-41.03
-55.99
-71.61
-85.37
-94.38
-96.21
-89.53
-74.46
-52.37
-25.35
4.43
35.12
65.3
93.79
119.54
141.65
159.44
172.72
181.78
187.35
190.31
191.5
191.53
190.7
189.07
186.39
182.2
175.86
166.65
154.0
137.69
117.96
95.52
71.43
46.69
22.09
-1.79
-24.35
-44.58
-60.75
-70.64
-72.12
-64.11
-47.27
-24.19
1.23
24.91
43.78
56.44
63.17
65.2
63.95
60.48
55.37
49.0
41.82
34.44
27.45
21.05
14.83
7.84
-1.06
-12.69
-27.04
-43.08
-58.8
-71.71
-79.56
-80.94
-75.76
-65.18
-51.12
-35.51
-19.77
-4.59
9.95
23.83
36.82
48.33
57.64
64.19
67.92
69.3
69.13
68.3
67.45
66.93
66.76
66.84
67.07
67.47
68.15
69.17
70.49
71.8
72.69
72.73
71.73
69.79
67.33
64.83
62.7
61.08
59.84
58.7
57.41
55.79
53.81
51.54
49.07
46.5
43.88
41.17
38.25
34.9
30.94
26.32
21.21
15.98
11.09
6.88
3.39
0.33
-2.87
-6.89
-12.28
-19.22
-27.26
-35.28
-41.61
-44.36
-41.99
-33.74
-19.99
-2.05
18.22
38.97
58.78
76.69
92.12
104.62
113.81
119.4
121.4
120.19
116.37
110.6
103.36
94.85
85.11
74.16
62.09
49.06
35.24
20.8
5.93
-8.96
-23.18
-35.78
-45.77
-52.33
-54.99
-53.67
-48.61
-40.29
-29.36
-16.65
-3.16
10.06
22.04
32.1
39.91
45.49
49.05
50.82
50.92
49.31
45.85
40.41
32.92
23.44
12.16
-0.7
-14.82
-29.87
-45.49
-61.15
-76.13
-89.43
-99.88
-106.3
-107.81
-104.04
-95.2
-82.0
-65.44
-46.55
-26.2
-5.14
15.88
36.03
54.35
69.98
82.37
91.57
98.21
103.37
108.08
113.02
118.28
123.45
127.94
131.31
133.45
134.5
134.68
134.12
132.71
130.21
126.24
120.41
112.39
102.12
89.91
76.51
63.01
50.53
39.83
31.08
23.87
17.53
11.43
5.23
-1.2
-8.01
-15.54
-24.32
-34.87
-47.42
-61.75
-77.24
-93.13
-108.59
-122.8
-134.88
-143.85
-148.7
-148.67
-143.53
-133.69
-120.1
-104.0
-86.66
-69.15
-52.37
-37.01
-23.61
-12.55
-3.97
2.28
6.61
9.55
11.72
13.61
15.6
17.84
20.28
22.75
25.05
27.05
28.74
30.17
31.4
32.41
33.17
33.66
34.05
34.55
35.37
36.4
37.17
36.91
34.95
31.0
25.42
19.03
12.77
7.27
2.54
-1.86
-6.54
-11.94
-18.13
-24.88
-31.93
-39.2
-46.86
-55.12
-63.93
-72.73
-80.52
-86.06
-88.32
-86.75
-81.47
-73.09
-62.53
-50.68
-38.31
-26.03
-14.31
-3.52
6.03
14.13
20.68
25.73
29.48
32.29
34.58
36.8
39.29
42.21
45.56
49.21
53.03
56.94
60.91
64.84
68.47
71.28
72.63
71.81
68.36
62.22
53.84
44.16
34.44
25.99
19.82
16.42
15.73
17.21
20.07
23.57
27.15
30.5
33.5
36.09
38.14
39.44
39.71
38.59
35.84
31.35
25.4
18.65
12.21
7.35
5.26
6.55
11.06
17.8
25.3
32.17
37.44
40.82
42.57
43.06
42.5
40.78
37.6
32.77
26.42
19.14
11.85
5.56
1.06
-1.26
-1.36
0.53
4.1
9.02
14.93
21.34
27.6
32.95
36.85
39.08
39.88
39.8
39.34
38.6
37.06
33.65
27.22
17.07
3.33
-12.91
-29.93
-45.91
-59.56
-70.37
-78.61
-85.08
-90.57
-95.56
-99.97
-103.24
-104.37
-102.22
-95.79
-84.62
-69.23
-51.4
-34.03
-20.56
-13.89
-15.29
-23.69
-35.74
-46.86
-52.72
-50.78
-40.97
-25.55
-7.98
8.45
21.5
30.29
34.77
35.1
31.43
23.95
13.43
1.4
-10.0
-18.82
-23.92
-25.56
-25.17
-24.78
-26.14
-30.1
-36.39
-43.84
-50.94
-56.39
-59.55
-60.61
-60.37
-59.83
-59.64
-59.8
-59.67
-58.24
-54.76
-49.1
-41.97
-34.59
-28.31
-24.04
-21.98
-21.6
-21.85
-21.45
-19.17
-13.94
-5.01
7.94
24.72
44.44
65.59
86.17
103.92
116.64
122.57
120.67
110.88
94.15
72.29
47.62
22.49
-1.12
-21.91
-39.48
-54.28
-67.38
-80.07
-93.32
-107.31
-121.35
-134.07
-144.01
-150.16
-152.32
-151.09
-147.52
-142.68
-137.32
-131.82
-126.21
-120.41
-114.34
-108.01
-101.5
-94.88
-88.1
-80.83
-72.65
-63.14
-52.18
-40.14
-27.74
-15.78
-4.72
5.59
15.76
26.53
38.32
51.01
63.96
76.45
87.92
98.11
106.68
112.94
115.72
113.66
105.87
92.48
74.89
55.28
35.97
18.6
3.82
-8.62
-19.39
-29.15
-38.32
-47.1
-55.53
-63.7
-71.61
-79.24
-86.42
-92.87
-98.13
-101.49
-102.01
-98.78
-91.32
-80.01
-66.26
-52.18
-39.87
-30.65
-24.61
-20.83
-17.96
-15.07
-11.99
-9.15
-7.15
-6.15
-5.74
-5.23
-4.16
-2.6
-1.15
-0.57
-1.32
-3.34
-6.13
-9.07
-11.8
-14.43
-17.43
-21.32
-26.45
-32.78
-39.95
-47.36
-54.27
-59.91
-63.45
-64.12
-61.4
-55.19
-46.01
-34.91
-23.21
-12.14
-2.57
5.11
10.81
14.47
15.95
15.0
11.51
5.78
-1.43
-9.0
-15.87
-21.4
-25.5
-28.59
-31.3
-34.24
-37.83
-42.18
-47.22
-52.71
-58.25
-63.47
-68.18
-72.44
-76.62
-81.23
-86.71
-93.22
-100.5
-107.96
-114.8
-120.35
-124.22
-126.42
-127.43
-128.07
-129.29
-132.0
-136.85
-144.03
-153.25
-163.51
-173.21
-180.09
-181.66
-175.65
-160.76
-137.08
-106.26
-71.04
-34.55
0.47
32.19
59.73
82.94
102.02
117.21
128.81
137.18
142.92
146.87
150.03
153.35
157.57
163.08
169.93
177.91
186.63
195.59
204.23
212.04
218.57
223.64
227.32
230.02
232.32
234.74
237.43
239.96
241.32
240.19
235.45
226.69
214.47
200.2
185.63
172.12
160.12
149.07
137.7
124.68
109.21
91.24
71.44
50.69
29.48
7.56
-16.2
-43.28
-74.75
-110.3
-147.75
-183.18
-211.89
-229.81
-234.85
-227.56
-211.13
-190.47
-171.25
-158.78
-156.95
-167.29
-188.26
-215.23
-241.62
-260.8
-268.3
-263.18
-248.08
-227.79
-207.3
-190.15
-177.91
-170.41
-166.47
-164.42
-162.29
-157.89
-149.22
-135.04
-115.58
-92.64
-69.04
-47.79
-31.05
-19.59
-12.77
-9.03
-6.44
-3.25
1.87
9.6
19.89
31.78
43.59
53.17
58.57
58.71
53.72
44.83
33.71
21.62
9.06
-4.07
-17.75
-31.08
-42.09
-48.17
-47.05
-37.68
-20.67
2.09
28.17
55.35
82.03
107.1
129.59
148.42
162.44
170.87
173.68
171.81
166.88
160.72
154.74
149.76
145.99
143.28
141.45
140.41
140.05
140.16
140.3
139.89
138.35
135.34
130.83
125.15
118.86
112.46
106.27
100.28
94.2
87.63
80.25
72.02
63.18
54.11
45.23
36.75
28.63
20.59
12.18
2.96
-7.38
-18.76
-30.63
-41.86
-50.84
-55.75
-55.0
-47.67
-33.76
-14.17
9.49
35.27
61.23
85.67
107.27
125.15
138.88
148.53
154.61
158.08
160.15
162.15
165.34
170.54
177.84
186.39
194.6
200.61
203.19
202.35
199.48
196.75
196.11
198.41
202.96
208.04
211.71
212.69
210.65
206.03
199.46
191.32
181.63
170.39
157.92
145.04
132.83
122.21
113.47
106.05
98.74
90.04
78.75
64.39
47.35
28.81
10.35
-6.58
-21.06
-32.95
-42.81
-51.57
-60.07
-68.78
-77.6
-86.16
-94.03
-101.04
-107.43
-113.79
-120.84
-129.26
-139.39
-151.12
-163.78
-176.13
-186.59
-193.59
-196.02
-193.61
-186.92
-177.16
-165.67
-153.55
-141.4
-129.34
-117.31
-105.21
-93.09
-81.19
-69.88
-59.52
-50.4
-42.7
-36.48
-31.69
-28.21
-25.99
-25.01
-25.37
-27.17
-30.38
-34.62
-39.05
-42.41
-43.26
-40.39
-33.19
-21.97
-7.94
7.12
21.37
33.38
42.38
48.21
51.08
51.24
48.88
44.15
37.23
28.56
18.82
8.81
-0.68
-9.1
-16.17
-21.9
-26.44
-30.0
-32.84
-35.16
-37.18
-39.13
-41.25
-43.79
-46.97
-50.97
-55.85
-61.51
-67.64
-73.86
-79.74
-84.92
-89.16
-92.21
-93.84
-93.8
-91.88
-88.13
-82.78
-76.17
-68.4
-59.25
-48.19
-34.79
-19.04
-1.7
15.79
31.75
44.78
54.16
59.93
62.75
63.45
62.69
60.77
57.58
52.92
46.74
39.47
32.11
25.92
22.05
21.03
22.6
25.84
29.58
32.85
35.06
35.95
35.48
33.59
30.22
25.48
19.64
13.13
6.44
-0.14
-6.46
-12.59
-18.64
-24.82
-31.44
-38.97
-47.97
-58.98
-72.11
-86.85
-101.75
-114.6
-122.88
-124.44
-118.3
-105.08
-86.92
-66.8
-47.58
-31.14
-18.0
-7.62
1.01
8.62
15.34
20.71
24.21
25.67
25.52
24.6
23.78
23.48
23.57
23.52
22.79
21.12
18.69
15.9
13.11
10.4
7.57
4.38
0.72
-3.21
-7.0
-10.18
-12.43
-13.71
-14.26
-14.58
-15.31
-17.05
-20.21
-24.89
-30.8
-37.27
-43.43
-48.32
-51.13
-51.26
-48.5
-43.04
-35.41
-26.42
-16.96
-7.8
0.58
7.87
13.83
18.05
19.96
19.09
15.29
9.06
1.5
-5.98
-12.11
-16.16
-18.05
-18.29
-17.58
-16.64
-15.86
-15.39
-15.11
-14.77
-14.05
-12.6
-10.23
-6.91
-2.93
1.14
4.68
7.04
7.9
7.25
5.39
2.77
-0.15
-3.13
-6.12
-9.33
-13.13
-17.85
-23.6
-30.05
-36.33
-41.15
-43.15
-41.34
-35.56
-26.53
-15.66
-4.55
5.5
13.76
20.06
24.63
27.75
29.63
30.35
29.93
28.47
26.2
23.48
20.7
18.2
16.18
14.67
13.61
12.95
12.63
12.64
12.91
13.33
13.63
13.49
12.7
11.21
9.21
7.04
5.05
3.43
2.08
0.61
-1.51
-4.71
-9.02
-14.07
-19.11
-23.41
-26.48
-28.3
-29.21
-29.71
-30.22
-31.01
-32.16
-33.66
-35.38
-36.9
-37.43
-35.9
-31.36
-23.36
-12.34
0.45
13.32
24.77
33.86
40.38
44.63
47.03
47.87
47.22
45.08
41.58
37.16
32.49
28.34
25.28
23.57
23.11
23.51
24.32
25.18
25.87
26.32
26.45
26.06
24.89
22.71
19.43
15.22
10.53
5.89
1.74
-1.72
-4.62
-7.28
-10.02
-13.02
-16.23
-19.43
-22.33
-24.73
-26.57
-27.87
-28.66
-28.99
-28.86
-28.39
-27.86
-27.8
-28.74
-30.93
-34.07
-37.17
-38.81
-37.56
-32.6
-24.05
-12.93
-0.77
10.89
20.94
28.83
34.47
37.95
39.34
38.74
36.29
32.34
27.48
22.39
17.76
14.06
11.5
9.96
9.18
8.81
8.58
8.42
8.34
8.44
8.73
9.11
9.36
9.27
8.71
7.68
6.29
4.72
3.1
1.5
-0.05
-1.61
-3.26
-5.13
-7.35
-9.99
-13.0
-16.2
-19.29
-21.97
-24.08
-25.65
-26.91
-28.14
-29.57
-31.32
-33.35
-35.55
-37.7
-39.42
-40.09
-38.9
-35.06
-28.1
-18.2
-6.23
6.38
18.21
28.2
35.91
41.41
45.05
47.05
47.37
45.85
42.47
37.56
31.88
26.47
22.27
19.81
19.06
19.58
20.75
22.09
23.42
24.72
26.02
27.16
27.81
27.58
26.32
24.15
21.45
18.57
15.66
12.59
9.12
5.12
0.78
-3.35
-6.52
-8.12
-7.83
-5.84
-2.77
0.59
3.45
5.28
5.82
5.16
3.5
1.14
-1.7
-4.88
-8.29
-11.84
-15.42
-18.92
-22.24
-25.43
-28.56
-31.64
-34.36
-36.01
-35.51
-31.82
-24.38
-13.51
-0.42
13.07
25.2
34.72
41.17
44.74
45.95
45.28
43.14
39.86
35.84
31.63
27.76
24.66
22.46
21.05
20.13
19.43
18.7
17.74
16.33
14.26
11.38
7.72
3.53
-0.76
-4.74
-8.17
-11.01
-13.32
-15.19
-16.63
-17.64
-18.36
-19.1
-20.16
-21.65
-23.22
-24.19
-23.95
-22.42
-20.35
-19.1
-19.98
-23.6
-29.45
-36.16
-42.1
-46.13
-47.95
-47.91
-46.51
-43.96
-39.98
-34.17
-26.45
-17.35
-7.91
0.75
7.95
13.7
18.6
23.4
28.5
33.66
38.13
41.0
41.59
39.77
35.84
30.43
24.1
17.38
10.68
4.39
-1.08
-5.55
-9.09
-12.21
-15.6
-19.8
-25.03
-30.99
-37.1
-42.76
-47.63
-51.71
-55.33
-59.0
-63.28
-68.72
-75.63
-84.04
-93.49
-103.24
-112.43
-120.44
-127.23
-133.26
-139.27
-145.93
-153.43
-161.48
-169.49
-176.93
-183.66
-189.96
-196.42
-203.69
-212.23
-222.12
-232.96
-243.59
-252.26
-256.76
-255.05
-245.79
-228.9
-205.65
-178.17
-148.79
-119.31
-90.65
-62.9
-35.77
-9.03
17.34
43.12
67.96
91.69
114.18
135.33
154.93
172.55
187.59
199.4
207.43
211.54
212.01
209.53
205.1
199.6
193.64
187.36
180.54
172.84
164.05
154.2
143.5
132.11
119.95
106.63
91.8
75.37
57.73
39.84
22.87
7.76
-5.14
-16.21
-26.5
-37.27
-49.53
-63.6
-78.83
-93.65
-105.83
-112.96
-113.0
-104.74
-88.19
-64.57
-36.19
-5.85
23.6
49.79
71.11
86.81
96.88
101.92
103.01
101.52
98.85
96.28
94.68
94.58
96.26
99.91
105.86
114.44
125.89
140.03
156.23
173.48
190.71
207.09
222.17
235.97
248.84
261.2
273.19
284.39
293.77
299.88
301.34
297.33
287.82
273.48
255.28
233.97
209.86
182.88
153.0
120.61
86.83
53.28
21.68
-6.58
-30.65
-50.19
-65.21
-76.01
-83.18
-87.69
-90.82
-93.83
-97.48
-101.6
-105.18
-106.89
-105.87
-102.53
-98.57
-96.52
-98.57
-105.5
-116.2
-127.98
-137.62
-142.59
-142.0
-136.71
-128.7
-119.96
-111.52
-103.27
-94.35
-84.08
-72.66
-61.26
-51.48
-44.56
-40.79
-39.46
-39.29
-38.97
-37.68
-35.05
-31.1
-25.92
-19.6
-12.32
-4.47
3.14
9.43
13.27
13.91
11.39
6.65
1.28
-3.12
-5.66
-6.58
-7.2
-9.23
-14.06
-22.09
-32.8
-45.18
-58.4
-72.22
-87.01
-103.35
-121.59
-141.51
-162.37
-183.08
-202.29
-218.73
-231.28
-239.28
-242.87
-243.15
-242.08
-242.02
-244.87
-251.27
-260.18
-268.94
-274.16
-272.75
-262.97
-244.81
-219.79
-190.18
-158.16
-125.18
-91.85
-58.2
-24.16
9.91
42.99
73.55
99.93
120.89
135.91
145.38
150.33
151.94
151.25
148.95
145.5
141.37
137.22
133.76
131.5
130.39
129.7
128.13
124.27
117.12
106.49
93.22
78.77
64.58
51.31
38.38
24.29
7.46
-12.68
-35.08
-57.12
-75.42
-87.03
-90.32
-85.4
-73.91
-58.52
-42.15
-27.38
-15.98
-8.68
-5.27
-4.81
-6.09
-8.02
-9.77
-10.72
-10.32
-7.93
-3.01
4.66
14.76
26.37
38.32
49.65
60.06
70.1
80.96
93.79
109.04
126.04
143.23
158.7
170.99
179.6
185.05
188.45
190.96
193.35
195.83
198.19
199.98
200.7
199.87
197.1
192.12
185.03
176.39
167.39
159.72
155.23
155.45
161.14
171.9
186.3
202.2
217.45
230.32
239.63
244.56
244.35
238.14
225.3
205.9
181.13
153.32
125.3
99.64
77.9
60.45
46.78
35.99
27.29
19.97
13.26
6.08
-2.92
-15.03
-30.94
-50.42
-72.21
-94.46
-115.5
-134.5
-151.8
-168.6
-186.2
-205.07
-224.36
-242.02
-255.7
-263.88
-266.6
-265.59
-263.47
-262.76
-264.89
-269.88
-276.56
-283.07
-287.43
-287.9
-283.17
-272.66
-256.72
-236.79
-215.22
-194.72
-177.57
-164.95
-156.69
-151.55
-147.81
-143.91
-138.8
-131.92
-122.98
-111.62
-97.31
-79.35
-57.07
-30.12
1.29
36.29
73.38
110.58
145.89
177.55
204.5
226.58
244.62
260.33
275.88
293.32
313.64
336.0
357.5
373.73
380.16
373.84
354.64
325.5
291.51
258.16
229.72
208.22
193.52
183.97
177.41
171.83
165.7
157.93
147.7
134.53
118.25
99.02
77.24
53.19
26.56
-3.83
-39.69
-82.41
-131.75
-184.83
-236.27
-279.55
-309.27
-323.19
-323.16
-314.43
-303.66
-296.76
-297.37
-306.48
-322.88
-343.9
-366.03
-385.35
-398.16
-401.71
-395.05
-379.22
-356.92
-331.45
-305.54
-280.61
-256.52
-232.01
-205.24
-174.44
-138.6
-98.06
-54.76
-12.01
26.43
57.59
80.3
95.44
105.18
111.92
117.33
122.31
127.42
133.75
142.99
156.95
176.71
201.86
230.55
260.25
288.73
314.67
337.59
357.35
373.48
384.93
390.46
389.23
381.32
367.84
350.49
330.85
309.96
288.13
265.23
241.11
215.79
189.46
162.4
134.86
107.22
80.15
54.66
32.01
13.25
-1.07
-11.19
-18.04
-22.92
-27.01
-31.09
-35.37
-39.61
-43.4
-46.4
-48.59
-50.22
-51.73
-53.52
-55.82
-58.69
-62.11
-66.08
-70.53
-75.11
-79.0
-81.05
-80.09
-75.46
-67.46
-57.3
-46.71
-37.28
-30.01
-25.04
-21.98
-20.33
-19.85
-20.61
-22.83
-26.54
-31.31
-36.44
-41.21
-45.2
-48.5
-51.6
-55.04
-59.15
-63.81
-68.55
-72.87
-76.38
-79.03
-80.95
-82.3
-83.27
-83.95
-84.44
-84.9
-85.48
-86.26
-87.32
-88.79
-90.97
-94.32
-99.27
-106.06
-114.6
-124.49
-135.19
-146.26
-157.51
-169.01
-180.97
-193.64
-207.15
-221.44
-236.1
-250.22
-262.43
-270.97
-274.1
-270.56
-259.96
-242.85
-220.64
-195.12
-168.16
-141.47
-116.45
-94.31
-75.9
-61.8
-52.06
-46.17
-43.09
-41.43
-39.8
-36.96
-32.19
-25.2
-16.16
-5.43
6.51
19.22
32.29
45.34
58.0
69.94
80.88
90.58
98.81
105.32
109.78
111.95
111.85
109.81
106.5
102.64
98.76
94.94
90.96
86.46
81.34
75.82
70.37
65.31
60.61
55.79
50.23
43.57
35.98
28.17
21.05
15.34
11.23
8.34
5.9
3.04
-1.07
-7.02
-15.13
-25.26
-36.77
-48.31
-58.03
-63.88
-64.21
-58.29
-46.53
-30.41
-11.95
6.8
24.33
39.8
52.97
63.87
72.56
78.98
83.01
84.65
84.22
82.29
79.67
77.09
75.04
73.73
73.09
73.01
73.44
74.45
76.09
78.29
80.68
82.77
84.05
84.25
83.33
81.57
79.24
76.55
73.47
69.86
65.54
60.41
54.56
48.23
41.75
35.47
29.62
24.37
19.66
15.34
11.21
7.09
2.92
-1.24
-5.28
-9.22
-13.27
-17.89
-23.62
-30.83
-39.43
-48.65
-57.03
-62.74
-64.0
-59.7
-49.71
-34.99
-17.2
1.69
19.99
36.52
50.68
62.3
71.38
77.99
82.17
84.08
83.98
82.33
79.68
76.62
73.66
71.15
69.36
68.4
68.27
68.88
69.96
71.12
71.91
71.9
70.87
68.84
66.07
62.95
59.85
57.02
54.57
52.48
50.67
49.05
47.56
46.07
44.42
42.4
39.87
36.86
33.63
30.55
27.99
26.12
24.79
23.64
22.28
20.46
18.2
15.73
13.37
11.37
9.8
8.52
7.21
5.48
2.89
-0.8
-5.52
-10.63
-14.96
-16.95
-15.13
-8.51
3.05
18.77
37.16
56.43
74.86
91.16
104.52
114.55
121.24
124.81
125.68
124.48
121.97
118.98
116.23
114.26
113.32
113.39
114.23
115.49
116.82
117.9
118.49
118.34
117.09
114.27
109.25
101.42
90.44
76.36
59.75
41.51
22.67
4.03
-13.86
-30.73
-46.28
-60.06
-71.42
-79.69
-84.44
-85.77
-84.36
-81.29
-77.74
-74.57
-72.2
-70.59
-69.47
-68.6
-67.95
-67.63
-67.75
-68.27
-68.97
-69.59
-69.9
-69.85
-69.52
-69.02
-68.36
-67.4
-65.97
-63.89
-61.14
-57.81
-54.07
-50.17
-46.37
-42.93
-40.02
-37.74
-36.05
-34.79
-33.81
-32.94
-32.11
-31.34
-30.69
-30.2
-29.86
-29.62
-29.38
-29.06
-28.59
-28.0
-27.37
-26.87
-26.61
-26.59
-26.68
-26.65
-26.31
-25.62
-24.72
-23.89
-23.43
-23.5
-24.01
-24.72
-25.24
-25.28
-24.74
-23.78
-22.74
-22.01
-21.96
-22.73
-24.33
-26.55
-29.07
-31.57
-33.72
-35.27
-36.12
-36.34
-36.15
-35.84
-35.64
-35.66
-35.84
-36.0
-35.93
-35.47
-34.54
-33.12
-31.23
-28.95
-26.35
-23.58
-20.8
-18.15
-15.79
-13.8
-12.25
-11.18
-10.59
-10.46
-10.7
-11.21
-11.86
-12.55
-13.12
-13.4
-13.25
-12.58
-11.43
-9.97
-8.5
-7.3
-6.54
-6.23
-6.25
-6.41
-6.56
-6.61
-6.53
-6.32
-5.99
-5.61
-5.28
-5.09
-5.13
-5.45
-6.03
-6.78
-7.63
-8.48
-9.24
-9.86
-10.34
-10.74
-11.17
-11.74
-12.52
-13.51
-14.67
-15.91
-17.17
-18.4
-19.51
-20.43
-21.01
-21.17
-20.85
-20.07
-18.89
-17.33
-15.45
-13.3
-11.03
-8.8
-6.8
-5.12
-3.74
-2.59
-1.6
-0.77
-0.22
-0.11
-0.5
-1.35
-2.44
-3.5
-4.25
-4.57
-4.45
-4.04
-3.54
-3.13
-2.9
-2.79
-2.65
-2.28
-1.58
-0.64
0.27
0.83
0.8
0.21
-0.74
-1.73
-2.5
-3.0
-3.3
-3.58
-3.98
-4.57
-5.3
-6.08
-6.87
-7.61
-8.22
-8.62
-8.77
-8.68
-8.46
-8.34
-8.57
-9.33
-10.66
-12.41
-14.25
-15.86
-16.92
-17.23
-16.72
-15.4
-13.39
-10.91
-8.28
-5.77
-3.61
-1.88
-0.5
0.64
1.58
2.27
2.58
2.47
2.02
1.44
0.99
0.83
0.95
1.23
1.56
1.85
2.12
2.39
2.69
2.95
3.14
3.19
3.18
3.17
3.3
3.59
4.01
4.38
4.49
4.18
3.39
2.25
0.95
-0.26
-1.24
-1.97
-2.53
-3.08
-3.73
-4.57
-5.59
-6.71
-7.84
-8.84
-9.66
-10.25
-10.64
-10.87
-11.04
-11.24
-11.56
-12.09
-12.89
-13.93
-15.07
-16.1
-16.71
-16.71
-15.96
-14.47
-12.32
-9.65
-6.64
-3.49
-0.52
1.96
3.72
4.72
5.13
5.24
5.33
5.43
5.42
5.08
4.34
3.35
2.5
2.1
2.31
2.97
3.76
4.4
4.73
4.87
5.0
5.26
5.69
6.17
6.5
6.49
6.08
5.25
4.15
2.94
1.8
0.91
0.31
-0.04
-0.29
-0.58
-1.0
-1.58
-2.19
-2.71
-3.05
-3.22
-3.33
-3.61
-4.32
-5.64
-7.61
-10.12
-12.86
-15.45
-17.53
-18.76
-18.98
-18.22
-16.64
-14.46
-11.95
-9.29
-6.59
-3.96
-1.49
0.66
2.34
3.48
4.08
4.29
4.35
4.51
4.97
5.81
6.96
8.24
9.41
10.28
10.74
10.87
10.82
10.77
10.81
10.88
10.85
10.6
10.1
9.38
8.52
7.54
6.4
5.01
3.4
1.65
-0.03
-1.45
-2.5
-3.23
-3.76
-4.25
-4.83
-5.56
-6.39
-7.2
-7.83
-8.21
-8.35
-8.42
-8.65
-9.18
-10.03
-11.0
-11.7
-11.73
-10.77
-8.72
-5.7
-1.96
2.16
6.41
10.63
14.78
18.85
22.8
26.48
29.53
31.57
32.26
31.5
29.48
26.68
23.7
21.06
19.03
17.56
16.34
14.95
13.01
10.29
6.82
2.82
-1.31
-5.15
-8.42
-10.99
-12.97
-14.56
-15.96
-17.27
-18.49
-19.62
-20.58
-21.25
-21.35
-20.44
-18.05
-13.85
-8.0
-1.3
4.95
9.29
10.54
8.19
2.54
-5.44
-14.46
-23.34
-31.29
-38.01
-43.48
-47.84
-51.24
-53.83
-55.86
-57.77
-60.18
-63.7
-68.72
-75.23
-82.74
-90.26
-96.49
-100.05
-99.76
-94.89
-85.36
-71.67
-54.79
-35.87
-16.07
3.45
21.61
37.39
49.99
58.98
64.43
66.86
67.05
65.79
63.71
61.24
58.7
56.29
54.15
52.27
50.54
48.82
47.04
45.26
43.55
41.95
40.3
38.37
35.93
32.88
29.29
25.37
21.37
17.53
14.03
11.06
8.83
7.44
6.9
6.95
7.19
7.18
6.61
5.41
3.75
1.93
0.3
-0.87
-1.37
-1.05
0.18
2.37
5.37
8.83
12.23
15.14
17.41
19.44
22.05
26.18
32.43
40.78
50.45
60.13
68.44
74.25
77.0
76.71
73.9
69.37
64.1
59.05
55.06
52.63
51.85
52.27
53.0
53.12
52.02
49.66
46.71
44.09
42.52
42.06
42.04
41.43
39.37
35.64
30.74
25.53
20.76
16.72
13.22
9.89
6.57
3.41
0.8
-0.94
-1.85
-2.27
-2.75
-3.66
-5.03
-6.46
-7.42
-7.58
-7.08
-6.57
-6.87
-8.65
-12.04
-16.71
-22.16
-28.16
-34.81
-42.29
-50.4
-58.22
-64.22
-66.83
-65.18
-59.58
-51.46
-42.74
-35.14
-29.64
-26.38
-25.03
-25.1
-26.14
-27.76
-29.48
-30.67
-30.63
-28.9
-25.4
-20.48
-14.76
-8.88
-3.33
1.68
6.08
9.89
13.15
16.01
18.77
21.82
25.52
29.95
34.73
39.06
41.93
42.41
39.99
34.66
26.8
17.11
6.47
-4.08
-13.39
-20.46
-24.69
-26.19
-25.88
-25.16
-25.53
-28.14
-33.44
-41.14
-50.35
-59.81
-68.22
-74.57
-78.34
-79.68
-79.38
-78.54
-78.25
-79.23
-81.66
-85.21
-89.32
-93.27
-96.28
-97.65
-96.85
-93.68
-88.51
-82.21
-76.01
-71.23
-68.92
-69.66
-73.57
-80.37
-89.54
-100.6
-113.07
-126.57
-140.64
-154.65
-167.87
-179.73
-190.03
-199.24
-208.46
-219.08
-232.38
-249.05
-268.88
-290.63
-312.14
-330.6
-343.09
-347.22
-341.79
-327.14
-304.96
-277.58
-247.08
-214.61
-180.24
-143.53
-104.24
-62.8
-20.43
21.48
61.99
101.01
139.18
177.29
215.55
253.12
288.17
318.53
342.36
358.98
368.99
374.12
376.91
380.39
387.86
402.22
424.93
454.65
486.72
513.89
528.59
525.78
504.93
470.1
427.99
385.05
345.22
309.33
276.05
243.73
211.49
179.25
146.99
114.01
79.06
41.18
0.75
-40.25
-78.67
-111.4
-136.6
-154.37
-166.51
-175.7
-184.46
-194.35
-205.79
-218.24
-230.7
-242.11
-251.63
-258.76
-263.37
-265.74
-266.6
-267.03
-268.23
-271.24
-276.69
-284.56
-294.24
-304.58
-313.99
-320.69
-323.01
-319.78
-310.68
-296.48
-278.81
-259.63
-240.54
-222.34
-204.93
-187.75
-170.28
-152.49
-134.81
-117.82
-101.86
-86.73
-71.82
-56.39
-40.04
-22.88
-5.59
10.94
25.96
39.2
51.0
62.18
73.83
87.15
103.27
122.87
145.69
169.91
192.21
208.25
214.06
207.56
189.49
163.45
134.65
108.2
87.59
73.92
66.19
62.12
59.14
54.97
47.77
36.24
19.68
-1.68
-26.47
-52.1
-75.1
-91.92
-99.81
-97.64
-86.06
-67.2
-43.97
-19.18
5.0
27.34
47.25
64.48
78.85
90.06
97.87
102.25
103.57
102.61
100.41
97.94
95.88
94.53
93.86
93.71
93.9
94.23
94.51
94.4
93.51
91.54
88.38
84.18
79.29
74.06
68.63
62.97
56.93
50.31
43.08
35.3
27.14
18.85
10.71
2.91
-4.43
-11.42
-18.39
-25.85
-34.38
-44.35
-55.73
-67.87
-79.43
-88.54
-93.2
-91.71
-83.18
-67.73
-46.42
-20.91
7.04
35.94
64.67
92.33
118.06
140.93
160.07
174.91
185.29
191.49
194.06
193.57
190.49
185.22
178.18
169.91
160.99
151.88
142.81
133.69
124.23
114.17
103.38
92.01
80.41
68.96
57.94
47.43
37.26
27.22
17.15
7.01
-3.09
-12.98
-22.52
-31.69
-40.43
-48.65
-56.15
-62.75
-68.39
-73.24
-77.68
-82.22
-87.22
-92.79
-98.67
-104.25
-108.64
-110.91
-110.33
-106.65
-100.21
-91.71
-81.96
-71.5
-60.48
-48.84
-36.56
-23.85
-11.21
0.78
11.5
20.34
26.74
30.17
30.4
27.82
23.65
19.7
17.88
19.43
24.53
32.39
41.73
51.31
60.43
68.93
76.96
84.7
92.21
99.37
105.95
111.64
116.12
119.02
119.98
118.72
115.13
109.23
101.16
91.13
79.4
66.51
53.21
40.55
29.58
21.12
15.49
12.39
11.04
10.45
9.75
8.35
5.93
2.4
-2.33
-8.33
-15.57
-23.68
-31.7
-38.13
-41.14
-39.13
-31.33
-18.15
-1.15
17.4
35.26
50.84
63.48
73.33
80.96
86.85
91.1
93.54
94.01
92.64
90.0
86.92
84.2
82.3
81.2
80.59
80.05
79.31
78.27
76.99
75.47
73.59
71.13
67.83
63.57
58.39
52.53
46.43
40.53
35.14
30.27
25.63
20.67
14.96
8.39
1.32
-5.43
-10.98
-14.76
-16.66
-17.11
-16.81
-16.51
-16.78
-17.94
-20.04
-22.9
-26.16
-29.43
-32.51
-35.58
-39.08
-43.54
-49.12
-55.32
-61.01
-64.82
-65.65
-63.03
-57.23
-49.0
-39.31
-29.2
-19.68
-11.69
-5.96
-2.75
-1.75
-2.11
-2.9
-3.44
-3.6
-3.66
-4.02
-4.73
-5.4
-5.35
-3.92
-0.73
4.18
10.47
17.68
25.27
32.64
39.05
43.57
45.27
43.38
37.63
28.33
16.36
2.93
-10.64
-23.23
-34.08
-42.84
-49.57
-54.63
-58.58
-61.99
-65.34
-68.94
-72.86
-77.0
-81.11
-84.85
-87.94
-90.24
-91.79
-92.92
-94.07
-95.7
-98.05
-100.97
-103.85
-105.73
-105.52
-102.34
-95.77
-85.96
-73.6
-59.65
-45.1
-30.74
-17.08
-4.44
6.92
16.67
24.44
29.84
32.71
33.16
31.6
28.73
25.28
21.92
19.13
17.15
16.11
15.96
16.63
17.94
19.69
21.56
23.18
24.19
24.26
23.28
21.31
18.59
15.41
12.01
8.46
4.66
0.48
-4.16
-9.2
-14.43
-19.59
-24.41
-28.7
-32.38
-35.48
-38.19
-40.86
-43.98
-48.0
-53.03
-58.56
-63.46
-66.16
-65.09
-59.2
-48.23
-32.73
-13.82
7.13
28.82
50.04
69.66
86.69
100.3
110.04
115.89
118.3
117.98
115.69
112.07
107.57
102.52
97.16
91.73
86.43
81.43
76.8
72.57
68.73
65.27
62.18
59.37
56.68
53.83
50.54
46.58
41.89
36.56
30.81
24.86
18.85
12.84
6.77
0.63
-5.5
-11.4
-16.77
-21.4
-25.25
-28.56
-31.8
-35.49
-39.94
-44.96
-49.75
-53.05
-53.49
-50.03
-42.33
-30.86
-16.8
-1.64
13.16
26.46
37.55
46.07
51.94
55.23
56.08
54.68
51.23
45.96
39.17
31.26
22.7
14.08
5.95
-1.2
-7.05
-11.46
-14.54
-16.61
-18.12
-19.59
-21.44
-23.92
-27.02
-30.56
-34.27
-37.99
-41.73
-45.64
-49.93
-54.66
-59.73
-64.78
-69.38
-73.18
-76.03
-78.19
-80.32
-83.37
-88.19
-95.03
-103.17
-110.73
-115.08
-113.69
-105.0
-89.11
-67.9
-44.31
-21.46
-1.61
14.32
26.79
37.09
46.82
57.38
69.65
83.84
99.26
114.23
126.42
133.62
134.95
131.67
127.25
126.15
132.01
145.87
165.47
186.17
202.8
211.63
211.47
203.27
188.93
169.99
147.08
120.25
89.69
56.36
22.0
-11.4
-42.15
-69.2
-91.97
-110.11
-123.15
-130.69
-132.61
-129.44
-122.45
-113.41
-104.18
-96.14
-89.89
-84.98
-80.06
-73.3
-63.04
-48.4
-29.72
-8.46
13.29
33.44
50.59
64.25
74.63
82.38
88.11
92.24
94.95
96.23
96.01
94.32
91.28
87.21
82.58
77.87
73.54
69.79
66.53
63.34
59.63
54.87
48.8
41.57
33.53
24.88
15.28
3.87
-10.42
-28.34
-49.78
-73.78
-98.82
-123.25
-145.63
-164.78
-179.58
-189.05
-192.56
-190.14
-182.71
-171.77
-158.95
-145.49
-132.04
-118.98
-106.76
-96.12
-87.83
-82.13
-78.32
-74.74
-69.38
-60.8
-48.9
-35.05
-21.59
-10.78
-3.63
0.43
3.24
6.71
11.67
17.3
21.65
22.82
20.19
14.83
8.76
3.71
-0.04
-3.62
-8.7
-16.11
-25.26
-34.35
-41.4
-45.21
-45.63
-43.23
-38.55
-31.8
-23.1
-13.02
-3.03
4.7
8.21
6.71
1.26
-5.47
-10.09
-9.8
-3.27
8.94
24.89
42.05
58.24
72.07
82.91
90.49
94.47
94.24
89.09
78.59
62.92
43.11
20.92
-1.46
-21.83
-38.45
-50.32
-57.33
-60.08
-59.56
-56.82
-52.77
-48.12
-43.51
-39.51
-36.54
-34.78
-34.11
-34.18
-34.64
-35.29
-36.15
-37.46
-39.51
-42.48
-46.46
-51.49
-57.75
-65.48
-75.08
-86.92
-101.23
-117.92
-136.14
-154.2
-169.54
-179.18
-180.59
-172.49
-155.36
-131.25
-103.13
-73.98
-46.23
-21.46
-0.71
15.31
26.13
31.66
32.44
29.71
25.14
20.36
16.47
13.85
12.24
11.12
10.09
9.13
8.5
8.62
9.64
11.37
13.24
14.53
14.62
13.22
10.43
6.65
2.38
-1.95
-6.16
-10.3
-14.66
-19.62
-25.58
-32.84
-41.36
-50.58
-59.21
-65.31
-66.7
-61.55
-49.15
-30.22
-6.77
18.47
42.9
64.7
82.92
97.32
107.85
114.4
116.74
114.84
109.11
100.56
90.52
80.21
70.34
61.03
51.96
42.8
33.44
24.07
15.1
6.79
-0.84
-8.0
-15.1
-22.49
-30.45
-39.07
-48.34
-58.07
-67.9
-77.26
-85.5
-91.98
-96.28
-98.38
-98.71
-98.1
-97.69
-98.53
-101.13
-105.05
-108.8
-110.12
-106.56
-96.41
-79.18
-55.79
-28.28
0.81
29.02
54.27
75.08
90.49
100.09
104.04
103.13
98.61
91.93
84.42
77.05
70.34
64.47
59.43
55.12
51.48
48.4
45.76
43.37
40.96
38.18
34.68
30.14
24.38
17.39
9.34
0.51
-8.83
-18.51
-28.46
-38.65
-48.96
-59.1
-68.64
-77.13
-84.24
-89.91
-94.36
-98.05
-101.64
-105.86
-111.26
-117.91
-125.05
-130.95
-133.18
-129.24
-117.41
-97.35
-70.34
-38.91
-6.06
25.42
53.46
76.79
94.81
107.34
114.5
116.7
114.64
109.33
101.91
93.54
85.23
77.77
71.64
67.13
64.28
63.0
63.08
64.14
65.64
66.89
67.2
66.0
63.07
58.54
52.85
46.52
39.94
33.27
26.44
19.31
11.84
4.17
-3.4
-10.58
-17.25
-23.52
-29.82
-36.83
-45.23
-55.46
-67.33
-79.78
-90.81
-97.88
-98.55
-91.29
-76.07
-54.48
-29.22
-3.33
20.66
41.09
57.28
69.15
76.83
80.43
80.14
76.34
69.8
61.63
53.03
45.12
38.65
33.98
31.1
29.79
29.72
30.46
31.6
32.69
33.32
33.13
31.86
29.38
25.73
21.03
15.47
9.29
2.72
-3.99
-10.62
-16.99
-23.0
-28.62
-33.96
-39.31
-45.21
-52.28
-61.04
-71.37
-82.24
-91.53
-96.53
-94.82
-85.07
-67.65
-44.51
-18.55
7.3
30.75
50.41
65.74
76.62
83.22
85.83
84.94
81.26
75.6
68.88
61.91
55.41
49.92
45.85
43.41
42.62
43.31
45.04
47.28
49.41
50.88
51.23
50.19
47.64
43.54
37.99
31.05
22.88
13.74
3.98
-5.95
-15.6
-24.59
-32.72
-39.93
-46.44
-52.66
-59.26
-66.97
-76.34
-87.36
-99.07
-109.49
-115.96
-115.9
-107.69
-91.31
-68.41
-41.83
-14.75
10.23
31.45
48.28
60.76
69.17
73.82
75.01
73.09
68.63
62.36
55.12
47.72
40.92
35.31
31.24
28.85
27.92
27.97
28.34
28.4
27.74
26.27
24.11
21.39
18.12
14.11
9.09
2.91
-4.3
-12.12
-20.0
-27.45
-34.24
-40.43
-46.31
-52.24
-58.6
-65.79
-74.17
-83.92
-94.68
-105.26
-113.57
-117.04
-113.41
-101.65
-82.42
-58.0
-31.55
-6.12
16.11
34.14
47.93
57.88
64.4
67.71
67.98
65.51
60.94
55.25
49.49
44.6
41.13
39.2
38.59
38.97
40.03
41.56
43.48
45.61
47.74
