BVP
8.0
7.87
7.77
7.73
7.77
7.89
8.07
8.21
8.25
8.19
8.1
8.02
8.01
8.02
7.96
7.8
7.53
7.16
6.68
6.03
5.14
4.06
2.96
2.03
1.43
1.11
0.91
0.59
0.08
-0.6
-1.27
-1.87
-2.39
-2.99
-3.79
-4.8
-5.85
-6.67
-7.08
-7.07
-6.86
-6.78
-7.12
-8.0
-9.29
-10.72
-12.01
-12.92
-13.35
-13.27
-12.7
-11.71
-10.39
-8.87
-7.27
-5.71
-4.19
-2.68
-1.08
0.66
2.47
4.2
5.63
6.59
7.01
6.96
6.57
6.04
5.54
5.21
5.12
5.27
5.6
6.03
6.44
6.78
7.0
7.09
7.04
6.84
6.51
6.11
5.71
5.4
5.19
5.02
4.78
4.36
3.73
2.96
2.19
1.54
1.07
0.75
0.49
0.21
-0.12
-0.49
-0.92
-1.45
-2.16
-3.11
-4.29
-5.61
-6.93
-8.14
-9.18
-10.13
-11.09
-12.18
-13.47
-14.9
-16.29
-17.36
-17.8
-17.35
-15.98
-13.84
-11.28
-8.68
-6.34
-4.37
-2.73
-1.29
0.02
1.22
2.27
3.17
3.93
4.64
5.38
6.15
6.9
7.53
7.96
8.16
8.19
8.18
8.25
8.44
8.75
9.11
9.45
9.71
9.87
9.91
9.77
9.39
8.71
7.8
6.83
6.05
5.66
5.7
6.03
6.45
6.75
6.83
6.72
6.5
6.27
6.07
5.9
5.72
5.54
5.37
5.2
5.0
4.71
4.25
3.55
2.61
1.5
0.36
-0.69
-1.61
-2.47
-3.48
-4.85
-6.72
-9.14
-12.05
-15.35
-18.89
-22.44
-25.67
-28.22
-29.74
-30.07
-29.31
-27.7
-25.56
-23.12
-20.44
-17.49
-14.21
-10.62
-6.82
-2.96
0.78
4.35
7.79
11.2
14.67
18.14
21.43
24.2
26.11
26.91
26.52
25.08
22.87
20.22
17.49
14.96
12.86
11.31
10.23
9.37
8.36
6.89
4.79
2.16
-0.71
-3.44
-5.6
-6.8
-6.73
-5.23
-2.46
1.02
4.34
6.64
7.43
6.86
5.6
4.43
3.78
3.43
2.55
0.14
-4.37
-10.86
-18.49
-26.11
-32.74
-37.89
-41.55
-44.02
-45.58
-46.42
-46.64
-46.33
-45.69
-44.98
-44.41
-43.96
-43.48
-42.7
-41.54
-40.12
-38.81
-38.04
-38.25
-39.7
-42.59
-46.97
-52.79
-59.81
-67.55
-75.38
-82.7
-89.21
-94.97
-100.31
-105.58
-110.79
-115.54
-119.09
-120.51
-118.81
-113.04
-102.34
-86.07
-64.05
-36.64
-4.78
30.18
66.71
103.25
138.15
169.63
195.84
215.22
226.9
230.93
228.17
219.81
206.87
190.06
169.99
147.54
124.09
101.26
80.54
62.82
48.29
36.63
27.41
20.36
15.38
12.34
11.05
11.09
12.03
13.45
14.92
16.07
16.42
15.56
13.29
9.77
5.6
1.57
-1.57
-3.41
-3.96
-3.58
-2.77
-1.96
-1.43
-1.24
-1.31
-1.5
-1.67
-1.72
-1.61
-1.35
-1.0
-0.69
-0.55
-0.69
-1.18
-2.04
-3.14
-4.3
-5.3
-5.91
-6.0
-5.56
-4.7
-3.69
-2.81
-2.31
-2.31
-2.8
-3.66
-4.7
-5.76
-6.73
-7.52
-8.08
-8.41
-8.61
-8.83
-9.26
-9.97
-10.86
-11.72
-12.31
-12.53
-12.55
-12.69
-13.24
-14.36
-15.93
-17.69
-19.34
-20.7
-21.71
-22.34
-22.5
-21.99
-20.63
-18.41
-15.57
-12.58
-9.99
-8.19
-7.29
-7.17
-7.56
-8.13
-8.51
-8.29
-7.0
-4.25
0.13
5.88
12.33
18.56
23.7
27.27
29.19
29.71
29.18
27.9
26.02
23.62
20.84
17.88
14.98
12.33
9.98
7.89
5.97
4.21
2.64
1.34
0.3
-0.56
-1.42
-2.44
-3.68
-5.1
-6.58
-8.01
-9.34
-10.57
-11.68
-12.67
-13.48
-14.07
-14.46
-14.73
-14.99
-15.34
-15.84
-16.47
-17.19
-17.94
-18.72
-19.49
-20.18
-20.6
-20.54
-19.76
-18.19
-15.92
-13.24
-10.51
-8.03
-5.97
-4.3
-2.86
-1.48
-0.04
1.49
3.06
4.53
5.76
6.62
7.06
7.13
6.99
6.83
6.81
6.97
7.23
7.49
7.62
7.53
7.27
6.89
6.41
5.85
5.21
4.53
3.95
3.66
3.8
4.38
5.24
6.11
6.66
6.72
6.23
5.33
4.2
3.04
1.97
1.03
0.19
-0.6
-1.42
-2.33
-3.36
-4.48
-5.63
-6.74
-7.76
-8.68
-9.51
-10.27
-10.99
-11.71
-12.52
-13.52
-14.73
-16.08
-17.3
-18.05
-17.97
-16.91
-14.94
-12.35
-9.55
-6.85
-4.45
-2.42
-0.72
0.74
2.01
3.18
4.29
5.34
6.27
7.0
7.44
7.59
7.56
7.52
7.62
7.95
8.45
9.01
9.46
9.73
9.77
9.61
9.28
8.84
8.31
7.74
7.16
6.59
5.98
5.31
4.53
3.67
2.79
1.94
1.21
0.58
0.04
-0.45
-0.91
-1.3
-1.56
-1.69
-1.71
-1.79
-2.07
-2.65
-3.54
-4.6
-5.66
-6.57
-7.29
-7.85
-8.3
-8.67
-8.92
-9.03
-9.06
-9.12
-9.34
-9.71
-10.05
-10.02
-9.29
-7.63
-5.11
-2.0
1.29
4.36
6.92
8.87
10.33
11.55
12.86
14.48
16.43
18.48
20.23
21.37
21.84
21.95
22.26
23.27
25.22
27.9
30.8
33.27
34.84
35.42
35.24
34.81
34.73
35.55
37.58
40.74
44.44
47.49
48.31
45.23
37.17
24.05
7.09
-11.4
-28.53
-41.5
-48.22
-47.82
-40.82
-28.9
-14.54
-0.2
12.4
22.82
31.59
39.52
47.01
53.95
60.27
66.39
73.35
81.9
91.35
98.96
100.59
92.54
73.42
44.96
11.11
-23.86
-57.3
-88.75
-119.01
-148.45
-175.76
-197.86
-211.29
-213.99
-206.4
-191.46
-173.42
-156.08
-141.5
-129.69
-119.24
-108.25
-95.27
-79.52
-60.9
-39.57
-15.87
9.66
36.04
61.83
85.38
105.22
120.34
130.39
135.45
135.73
131.2
121.67
107.31
89.28
69.97
52.67
40.36
34.5
34.32
37.08
39.24
37.91
31.84
21.59
8.94
-3.98
-15.41
-24.22
-30.0
-32.9
-33.64
-33.32
-33.28
-34.82
-39.04
-46.71
-58.06
-72.48
-88.47
-103.73
-115.66
-122.18
-122.31
-116.55
-106.62
-94.72
-82.76
-71.84
-62.17
-53.4
-45.11
-37.11
-29.54
-22.71
-16.83
-11.9
-7.74
-4.14
-0.94
1.89
4.32
6.37
8.13
9.79
11.49
13.31
15.14
16.8
18.12
19.03
19.62
20.09
20.67
21.54
22.81
24.53
26.7
29.26
32.06
34.86
37.31
39.06
39.75
39.12
36.88
32.8
26.64
18.38
8.39
-2.41
-12.66
-20.86
-25.89
-27.41
-25.9
-22.46
-18.25
-14.18
-10.66
-7.77
-5.51
-3.94
-3.18
-3.3
-4.06
-5.02
-5.59
-5.3
-4.01
-1.92
0.56
2.97
5.0
6.56
7.73
8.62
9.22
9.38
8.81
7.32
4.94
2.02
-0.89
-3.21
-4.56
-4.95
-4.68
-4.25
-4.06
-4.38
-5.2
-6.36
-7.57
-8.57
-9.2
-9.37
-9.15
-8.72
-8.29
-8.08
-8.17
-8.42
-8.58
-8.3
-7.36
-5.79
-3.91
-2.23
-1.36
-1.75
-3.5
-6.27
-9.31
-11.69
-12.58
-11.53
-8.65
-4.51
0.08
4.42
8.23
11.62
15.11
19.22
24.47
31.15
39.44
49.33
60.67
72.98
85.53
97.4
107.65
115.66
121.19
124.44
125.89
126.13
125.8
125.47
125.73
127.02
129.64
133.44
137.84
141.92
144.76
145.79
145.12
143.47
141.79
140.72
140.06
138.87
136.04
131.14
125.18
120.44
119.68
124.64
134.81
147.07
156.4
157.57
146.96
123.8
90.34
50.73
9.6
-29.42
-64.51
-95.55
-123.51
-149.95
-176.59
-205.09
-236.59
-270.74
-304.87
-333.9
-351.54
-352.66
-335.65
-303.59
-263.44
-223.42
-190.06
-166.25
-151.3
-142.49
-137.19
-134.16
-133.59
-136.12
-141.71
-149.16
-156.53
-162.02
-164.72
-164.92
-163.45
-160.82
-156.57
-149.45
-138.23
-122.75
-104.53
-86.63
-72.75
-65.84
-66.93
-74.56
-85.07
-93.65
-95.82
-88.81
-72.33
-48.54
-21.09
6.17
30.25
49.46
63.26
71.82
75.76
76.18
74.84
73.96
75.66
81.12
90.07
100.78
110.84
118.05
121.21
120.4
116.67
111.44
106.0
101.16
97.18
93.91
91.01
88.16
85.19
82.08
78.94
75.94
73.18
70.7
68.43
66.19
63.74
60.85
57.32
53.05
48.11
42.67
37.07
31.72
27.02
23.27
20.56
18.72
17.37
16.13
14.64
12.82
10.72
8.52
6.4
4.39
2.45
0.5
-1.54
-3.66
-5.79
-7.86
-9.84
-11.68
-13.3
-14.48
-14.9
-14.21
-12.29
-9.29
-5.68
-2.02
1.19
3.7
5.55
6.91
8.01
8.92
9.65
10.16
10.48
10.66
10.78
10.88
10.9
10.74
10.3
9.51
8.38
7.0
5.54
4.22
3.31
2.95
3.19
3.85
4.66
5.25
5.35
4.86
3.87
2.63
1.47
0.65
0.25
0.18
0.2
0.08
-0.27
-0.85
-1.51
-2.12
-2.57
-2.84
-2.94
-2.89
-2.81
-2.89
-3.4
-4.5
-6.1
-7.76
-8.81
-8.59
-6.79
-3.6
0.32
4.14
7.17
9.12
10.15
10.65
11.0
11.38
11.72
11.81
11.47
10.62
9.29
7.65
5.83
3.93
2.05
0.31
-1.19
-2.31
-2.97
-3.17
-2.98
-2.51
-1.91
-1.35
-0.97
-0.93
-1.32
-2.12
-3.18
-4.21
-4.88
-4.96
-4.41
-3.5
-2.67
-2.34
-2.73
-3.73
-4.98
-6.02
-6.56
-6.54
-6.22
-5.96
-6.08
-6.71
-7.72
-8.79
-9.5
-9.52
-8.69
-7.06
-4.9
-2.56
-0.33
1.59
3.18
4.51
5.67
6.68
7.53
8.12
8.37
8.25
7.78
7.03
6.17
5.45
5.27
6.03
7.96
11.05
14.89
18.82
22.13
24.27
25.01
24.4
22.65
19.97
16.56
12.64
8.54
4.73
1.73
-0.11
-0.67
-0.12
1.1
2.46
3.46
3.77
3.32
2.26
0.87
-0.56
-1.88
-3.16
-4.56
-6.24
-8.16
-10.08
-11.63
-12.5
-12.52
-11.8
-10.59
-9.22
-7.92
-6.81
-5.91
-5.16
-4.5
-3.9
-3.31
-2.7
-2.02
-1.29
-0.57
0.02
0.37
0.48
0.41
0.27
0.14
0.04
-0.14
-0.49
-1.04
-1.72
-2.39
-2.98
-3.48
-3.95
-4.43
-4.92
-5.33
-5.59
-5.67
-5.57
-5.4
-5.24
-5.19
-5.28
-5.55
-6.06
-6.86
-7.97
-9.36
-10.89
-12.36
-13.54
-14.21
-14.3
-13.96
-13.56
-13.56
-14.29
-15.76
-17.57
-18.86
-18.67
-16.39
-12.13
-6.79
-1.62
2.41
5.23
7.78
11.79
19.1
31.01
47.71
67.88
88.45
104.59
110.75
102.15
77.39
40.17
-0.88
-34.67
-51.7
-47.48
-24.15
11.12
48.96
81.45
103.71
113.83
111.62
97.72
73.81
42.71
8.27
-25.79
-56.68
-83.26
-105.55
-122.84
-132.86
-132.16
-118.52
-93.29
-62.34
-33.73
-15.01
-10.7
-20.06
-37.4
-53.61
-59.65
-50.16
-25.72
7.96
41.8
66.08
74.57
64.91
40.67
10.46
-16.08
-37.37
-57.7
-81.48
-110.65
-142.89
-172.34
-191.53
-194.61
-179.75
-149.41
-108.09
-60.74
-11.85
35.2
77.63
112.86
138.19
151.03
150.14
137.13
116.29
92.9
71.62
55.2
44.31
37.93
34.04
30.52
26.15
20.79
14.95
9.62
5.87
4.42
5.3
7.71
10.2
11.46
10.76
8.09
4.09
-0.26
-4.08
-6.92
-8.79
-10.06
-11.03
-11.77
-12.12
-11.84
-10.67
-8.59
-5.77
-2.58
0.53
3.16
5.01
6.02
6.32
6.15
5.76
5.37
5.09
4.93
4.91
5.01
5.25
5.65
6.23
6.95
7.74
8.5
9.14
9.56
9.7
9.52
9.02
8.25
7.27
6.18
5.09
4.09
3.23
2.54
1.98
1.49
0.98
0.37
-0.44
-1.49
-2.79
-4.21
-5.65
-6.95
-8.11
-9.22
-10.46
-11.95
-13.64
-15.31
-16.54
-16.92
-16.18
-14.36
-11.73
-8.71
-5.66
-2.81
-0.2
2.23
4.52
6.63
8.38
9.56
10.0
9.73
8.97
8.09
7.49
7.37
7.7
8.18
8.44
8.23
7.58
6.77
6.13
5.86
5.88
5.87
5.47
4.51
3.1
1.52
0.13
-0.95
-1.74
-2.37
-3.03
-3.78
-4.64
-5.62
-6.74
-7.96
-9.23
-10.41
-11.39
-12.21
-13.08
-14.32
-16.14
-18.48
-20.82
-22.46
-22.79
-21.57
-19.11
-16.06
-13.2
-11.14
-10.06
-9.68
-9.45
-8.85
-7.52
-5.52
-3.22
-1.21
-0.18
-0.56
-2.39
-5.29
-8.6
-11.49
-13.23
-13.32
-11.69
-8.9
-5.92
-3.44
-1.71
-0.22
2.41
7.84
17.48
31.55
48.52
65.64
80.6
91.68
98.32
101.16
101.29
100.43
99.94
100.1
100.09
99.37
96.96
92.2
85.71
79.48
77.83
85.35
104.84
136.42
178.48
226.59
274.36
314.65
340.53
348.45
338.33
313.22
271.02
215.58
154.73
97.57
54.89
25.57
5.27
-10.21
-24.78
-41.17
-61.27
-88.36
-126.17
-176.56
-237.69
-301.22
-355.09
-388.11
-393.97
-372.74
-331.34
-280.69
-231.98
-194.48
-172.93
-168.39
-178.82
-198.99
-220.01
-231.25
-223.15
-190.78
-136.67
-70.03
-4.11
48.1
78.08
84.3
71.08
45.57
14.14
-19.82
-55.36
-92.1
-128.08
-158.79
-178.27
-181.83
-168.46
-141.33
-106.02
-67.57
-28.52
10.99
51.58
92.13
128.69
155.52
167.66
163.76
147.12
124.44
102.88
87.08
77.71
71.89
65.57
55.84
42.3
26.87
12.45
1.37
-5.47
-8.56
-9.18
-8.53
-7.26
-5.51
-3.17
-0.28
2.8
5.43
7.06
7.42
6.75
5.69
5.0
5.21
6.41
8.24
10.05
11.24
11.41
10.52
8.79
6.6
4.29
2.11
0.14
-1.64
-3.24
-4.64
-5.75
-6.47
-6.81
-6.87
-6.87
-7.03
-7.44
-8.02
-8.57
-8.79
-8.45
-7.44
-5.79
-3.61
-1.06
1.73
4.63
7.52
10.21
12.51
14.16
14.95
14.79
13.76
12.16
10.34
8.67
7.38
6.55
6.18
6.22
6.56
7.08
7.57
7.82
7.63
6.92
5.82
4.58
3.49
2.73
2.37
2.3
2.34
2.31
2.11
1.67
1.0
0.15
-0.8
-1.82
-2.93
-4.23
-5.83
-7.8
-10.05
-12.33
-14.27
-15.56
-16.19
-16.46
-16.95
-18.31
-20.89
-24.64
-29.0
-33.11
-36.15
-37.64
-37.65
-36.75
-35.73
-35.31
-35.84
-37.15
-38.68
-39.69
-39.57
-38.04
-35.35
-32.33
-30.27
-30.6
-34.24
-40.86
-48.17
-52.11
-48.11
-33.13
-7.59
24.03
54.33
75.93
84.64
81.07
70.21
58.95
53.09
55.6
66.37
82.88
101.29
116.65
123.65
117.91
98.05
67.63
35.27
12.39
8.98
29.23
69.22
117.83
160.83
185.86
186.53
163.7
124.01
76.62
29.85
-11.24
-45.5
-74.83
-102.68
-132.82
-168.61
-212.77
-266.41
-327.9
-391.82
-449.24
-489.94
-506.3
-496.3
-464.95
-422.28
-379.2
-343.38
-316.95
-297.08
-278.61
-257.19
-231.1
-201.21
-169.69
-138.24
-107.48
-77.2
-47.12
-17.39
11.34
38.81
65.92
95.11
130.34
175.8
233.94
303.46
378.51
449.41
505.41
538.16
544.44
527.28
494.4
454.87
415.95
381.71
352.77
327.89
305.57
284.41
264.05
244.21
224.03
202.25
178.64
153.75
129.24
107.38
89.0
74.67
63.67
53.88
42.89
30.41
17.98
9.16
8.27
16.94
36.15
65.0
100.34
137.73
173.75
205.1
229.6
246.78
256.18
261.91
270.58
288.06
304.73
309.34
290.27
241.28
178.21
107.69
34.87
-35.1
-100.35
-156.83
-199.87
-227.25
-239.5
-239.89
-236.0
-234.15
-239.05
-253.47
-277.36
-306.64
-334.91
-354.76
-360.51
-352.06
-332.15
-305.73
-278.05
-252.04
-227.26
-201.51
-172.8
-141.22
-110.4
-84.0
-64.33
-51.69
-44.62
-41.12
-40.16
-41.77
-46.39
-54.46
-64.65
-74.35
-80.7
-81.6
-76.53
-66.73
-54.7
-43.32
-35.18
-31.42
-31.66
-34.3
-37.24
-38.8
-38.42
-36.79
-35.56
-36.62
-41.21
-49.4
-59.88
-70.35
-78.19
-81.28
-78.56
-70.22
-57.59
-42.59
-27.2
-13.06
-1.2
7.94
14.29
18.1
19.69
19.54
18.2
16.33
14.53
13.26
12.67
12.63
12.79
12.75
12.27
11.3
10.06
8.9
8.17
8.17
9.05
10.89
13.66
17.27
21.56
26.26
30.96
35.11
38.05
39.14
37.93
34.28
28.5
21.36
13.95
7.37
2.42
-0.59
-1.97
-2.41
-2.78
-3.88
-6.32
-10.46
-16.41
-23.9
-32.18
-39.99
-45.85
-48.46
-47.21
-42.39
-35.07
-26.58
-18.06
-10.07
-2.66
4.39
11.23
17.84
24.08
29.92
35.56
41.32
47.43
53.86
60.27
66.1
70.87
74.37
76.75
78.41
79.82
81.25
82.52
82.98
81.55
77.01
68.32
55.1
37.87
18.18
-1.7
-19.29
-32.63
-40.81
-44.26
-44.56
-43.95
-44.69
-48.52
-56.43
-68.65
-84.95
-104.86
-127.64
-152.15
-176.65
-198.64
-215.2
-223.44
-221.04
-206.75
-180.53
-143.39
-97.25
-44.73
10.96
66.14
116.89
159.5
191.24
211.04
219.81
220.16
215.45
208.62
201.36
193.88
185.52
175.61
164.18
152.04
140.3
129.72
120.23
111.15
101.66
91.36
80.5
69.77
59.79
50.65
41.99
33.26
24.21
15.19
7.05
0.66
-3.5
-5.62
-6.24
-5.88
-4.68
-2.61
0.08
2.35
2.41
-1.62
-10.67
-23.98
-39.19
-53.26
-63.77
-69.75
-71.79
-71.29
-69.48
-66.86
-63.23
-58.3
-52.27
-46.02
-40.77
-37.34
-35.69
-34.8
-33.12
-29.34
-22.95
-14.52
-5.38
3.02
9.7
14.52
18.17
21.72
26.07
31.46
37.27
42.24
45.0
44.67
41.29
35.9
30.2
25.92
24.21
25.11
27.46
29.02
26.97
18.73
2.95
-19.62
-45.76
-70.27
-87.33
-92.34
-83.6
-63.0
-35.38
-6.89
16.87
32.32
38.3
35.62
26.19
12.24
-4.05
-20.65
-35.68
-47.63
-55.61
-59.68
-60.9
-60.88
-61.21
-62.74
-65.23
-67.52
-68.04
-65.64
-60.05
-52.11
-43.44
-35.88
-30.98
-29.58
-31.67
-36.38
-42.24
-47.53
-50.8
-51.41
-49.73
-47.0
-44.76
-44.06
-44.92
-46.25
-46.34
-43.68
-37.66
-28.89
-18.97
-9.9
-3.33
-0.05
0.19
-1.53
-3.82
-5.44
-5.65
-4.29
-1.58
2.11
6.45
11.22
16.25
21.31
26.14
30.47
34.07
36.89
38.96
40.42
41.45
42.26
43.04
43.99
45.2
46.65
48.19
49.63
50.75
51.33
51.22
50.33
48.73
46.65
44.47
42.65
41.46
40.87
40.57
40.13
39.27
38.12
37.07
36.61
37.01
38.16
39.69
41.18
42.33
43.04
43.31
43.15
42.57
41.66
40.61
39.64
38.83
38.01
36.75
34.65
31.62
27.96
24.3
21.23
19.06
17.75
17.03
16.65
16.49
16.53
16.64
16.53
15.79
14.01
11.04
6.97
2.07
-3.33
-8.99
-14.73
-20.35
-25.59
-30.2
-34.01
-37.09
-39.73
-42.36
-45.33
-48.63
-51.77
-53.79
-53.57
-50.4
-44.51
-37.29
-30.96
-27.66
-28.35
-32.15
-36.48
-38.06
-34.33
-24.58
-10.2
5.89
20.1
29.03
30.28
23.07
8.94
-8.05
-21.92
-26.38
-17.0
6.95
41.95
81.33
117.43
143.96
157.45
157.49
146.03
126.45
102.76
78.97
58.54
43.67
34.82
30.79
29.27
27.86
24.97
20.47
15.57
12.28
12.44
16.97
25.31
35.33
43.65
46.42
40.43
24.21
-1.15
-31.95
-62.89
-88.7
-105.91
-113.91
-114.76
-111.93
-108.66
-106.66
-105.92
-105.4
-104.17
-102.01
-99.3
-96.17
-91.83
-84.5
-72.26
-54.22
-31.36
-6.46
16.96
36.04
49.61
58.28
63.73
67.65
70.85
73.25
74.35
74.01
72.94
72.61
74.58
79.74
87.69
96.8
104.65
109.02
108.68
103.9
96.36
88.53
82.89
81.24
84.07
90.47
98.28
104.56
106.39
101.62
89.65
71.79
51.05
31.28
15.93
6.85
3.72
4.34
5.56
4.51
-0.55
-10.05
-23.46
-39.8
-58.08
-77.26
-96.09
-112.86
-125.44
-131.71
-130.21
-120.69
-104.6
-85.0
-66.04
-52.05
-46.33
-50.31
-63.41
-83.58
-108.11
-134.21
-158.9
-178.8
-189.97
-188.76
-173.25
-144.49
-106.87
-66.93
-31.18
-4.06
13.14
21.86
24.84
24.64
22.81
19.98
16.28
11.86
7.06
2.23
-2.38
-6.73
-10.83
-14.59
-17.74
-19.93
-20.86
-20.48
-19.1
-17.38
-16.06
-15.78
-16.76
-18.71
-20.98
-22.8
-23.63
-23.42
-22.55
-21.73
-21.64
-22.72
-24.95
-27.86
-30.63
-32.24
-31.69
-28.24
-21.62
-12.14
-0.74
11.32
22.75
32.66
40.68
46.94
51.71
55.12
57.06
57.34
55.97
53.46
50.76
48.98
49.0
51.17
55.24
60.54
66.21
71.39
75.29
77.27
76.83
73.75
68.04
60.01
50.16
39.06
27.25
15.12
2.93
-9.06
-20.48
-30.72
-39.03
-44.82
-47.96
-49.0
-49.12
-49.75
-51.99
-56.12
-61.47
-66.66
-70.18
-71.0
-68.99
-64.85
-59.78
-55.01
-51.31
-48.85
-47.3
-46.19
-45.21
-44.37
-43.91
-44.02
-44.62
-45.21
-45.03
-43.23
-39.22
-32.83
-24.42
-14.81
-5.11
3.5
10.17
14.66
17.44
19.59
22.29
26.3
31.52
36.92
40.96
42.22
39.99
34.59
27.15
19.19
12.04
6.53
2.9
0.95
0.27
0.44
1.17
2.37
4.21
7.05
11.14
16.27
21.66
26.13
28.66
28.91
27.41
25.27
23.73
23.67
25.43
28.95
33.85
39.41
44.6
48.05
48.54
45.47
39.31
31.51
23.78
17.21
11.57
5.56
-2.29
-12.34
-23.2
-32.09
-36.12
-33.72
-25.44
-13.81
-2.25
6.21
9.92
8.77
3.81
-3.46
-11.52
-18.96
-24.47
-26.82
-25.19
-19.41
-10.12
1.39
13.63
25.21
35.15
42.91
48.48
52.22
54.68
56.36
57.53
58.21
58.18
57.19
55.08
51.86
47.64
42.6
36.9
30.63
23.92
17.05
10.48
4.74
0.23
-3.1
-5.76
-8.56
-12.28
-17.25
-23.17
-29.22
-34.38
-37.92
-39.69
-40.15
-39.99
-39.76
-39.51
-38.82
-37.04
-33.65
-28.58
-22.29
-15.64
-9.68
-5.48
-4.07
-6.38
-13.12
-24.19
-38.25
-52.54
-63.52
-68.1
-65.06
-55.67
-43.38
-32.18
-24.88
-22.03
-22.06
-22.42
-20.88
-16.12
-7.4
6.03
25.05
50.13
80.24
112.15
140.9
160.97
167.85
159.18
135.22
98.99
56.21
14.87
-15.99
-28.55
-18.82
11.6
55.76
103.68
145.66
175.11
189.56
189.85
178.4
157.93
131.0
100.41
69.42
41.55
19.71
5.27
-2.53
-6.2
-9.38
-15.63
-27.66
-47.03
-74.06
-108.21
-148.04
-190.78
-231.99
-265.68
-285.64
-287.33
-269.75
-236.24
-193.57
-149.62
-110.75
-80.0
-57.03
-39.13
-23.04
-6.25
12.34
32.44
52.98
72.58
90.0
104.24
114.72
121.26
124.04
123.46
120.14
114.73
107.96
100.32
92.16
83.56
74.36
64.2
52.56
39.1
23.89
7.44
-9.36
-25.77
-41.64
-57.42
-73.68
-90.2
-105.23
-115.55
-117.56
-108.88
-89.83
-63.92
-36.85
-14.61
-1.39
1.7
-3.44
-12.95
-22.68
-29.49
-32.05
-30.83
-27.51
-24.33
-23.4
-26.3
-33.86
-45.78
-60.33
-74.16
-82.61
-81.08
-66.84
-40.72
-7.67
24.58
48.16
58.01
53.56
38.44
18.42
-1.1
-16.8
-27.74
-34.37
-37.38
-37.18
-34.15
-29.14
-23.71
-19.72
-18.37
-19.66
-22.22
-23.96
-22.97
-18.28
-10.25
-0.33
9.51
17.62
23.2
26.63
29.21
32.63
38.17
46.1
55.57
64.88
72.25
76.4
76.93
74.27
69.28
62.89
55.7
48.01
39.87
31.36
22.79
14.76
8.03
3.22
0.38
-1.12
-2.5
-5.04
-9.47
-15.54
-22.01
-27.23
-29.8
-29.2
-25.93
-21.22
-16.42
-12.57
-10.18
-9.29
-9.56
-10.3
-10.35
-8.16
-2.19
8.39
22.97
39.31
53.98
63.47
65.36
59.17
46.34
29.65
12.21
-3.46
-15.86
-24.53
-29.78
-32.19
-32.31
-30.46
-26.81
-21.64
-15.72
-10.61
-8.43
-11.18
-19.82
-33.45
-49.25
-63.23
-71.6
-72.22
-65.27
-53.05
-39.06
-27.01
-20.1
-20.63
-29.39
-44.77
-62.21
-74.69
-74.84
-58.16
-25.79
14.86
52.38
75.66
78.38
61.22
31.21
-1.55
-27.69
-41.38
-41.12
-28.96
-9.04
13.8
34.88
50.38
57.75
56.12
46.69
32.58
18.14
7.78
4.48
8.66
18.11
28.76
36.23
37.49
31.85
20.78
7.13
-6.04
-16.42
-23.05
-26.61
-29.39
-34.67
-45.63
-63.65
-87.05
-110.81
-128.17
-133.38
-124.34
-103.64
-77.52
-53.19
-35.7
-26.1
-21.27
-15.41
-2.7
20.07
51.82
87.4
119.75
143.32
156.48
161.65
163.06
163.75
163.79
161.04
153.86
143.37
133.61
129.01
131.17
137.13
140.66
135.48
118.55
91.24
58.15
24.57
-5.55
-30.26
-49.11
-62.51
-71.05
-75.58
-77.04
-76.31
-74.14
-70.97
-66.83
-61.46
-54.49
-45.52
-34.28
-20.6
-4.56
13.4
32.25
50.17
64.8
73.84
75.96
71.38
61.74
49.32
35.8
21.48
5.3
-14.43
-39.14
-69.36
-104.52
-142.84
-181.21
-215.16
-239.51
-249.85
-244.42
-225.38
-198.54
-171.48
-150.85
-140.13
-138.9
-143.67
-149.6
-152.18
-148.21
-136.19
-116.24
-90.04
-60.49
-31.2
-5.68
13.46
24.93
28.94
26.99
21.53
15.54
11.96
12.92
19.2
29.82
42.42
54.1
62.58
67.02
68.28
68.31
69.16
71.98
76.65
82.09
87.02
90.64
92.97
94.65
96.32
98.17
99.69
99.89
97.91
93.58
87.65
81.54
76.74
74.29
74.54
77.35
82.52
89.96
99.54
110.52
121.15
128.78
130.62
124.86
111.32
91.58
68.38
44.74
23.39
6.31
-5.41
-11.86
-14.36
-15.34
-17.65
-23.49
-33.47
-46.21
-58.95
-68.81
-73.97
-74.29
-70.98
-65.73
-59.85
-53.9
-47.75
-41.03
-33.51
-25.24
-16.47
-7.44
1.74
11.07
20.47
29.68
38.12
45.12
50.13
52.9
53.59
52.61
50.35
47.01
42.55
36.91
30.21
23.0
16.17
10.66
7.11
5.68
6.01
7.58
9.9
12.75
16.03
19.54
22.78
25.0
25.46
23.82
20.43
16.26
12.53
10.05
8.79
7.85
5.84
1.58
-5.35
-14.33
-24.09
-33.2
-40.69
-46.19
-49.9
-52.2
-53.44
-53.86
-53.68
-53.24
-52.99
-53.36
-54.55
-56.38
-58.32
-59.66
-59.78
-58.41
-55.68
-52.07
-48.18
-44.57
-41.62
-39.5
-38.16
-37.4
-36.86
-36.09
-34.58
-31.92
-27.95
-22.87
-17.19
-11.59
-6.71
-2.92
-0.27
1.49
2.83
4.2
5.98
8.31
11.06
13.82
16.07
17.38
17.58
16.91
15.88
15.04
14.7
14.79
14.95
14.75
13.97
12.73
11.4
10.39
9.93
9.88
9.88
9.54
8.67
7.44
6.24
5.51
5.47
6.0
6.7
7.12
7.02
6.54
6.11
6.25
7.28
9.17
11.6
14.14
16.42
18.3
19.78
21.02
22.29
23.89
26.22
29.6
34.18
39.69
45.4
50.21
52.86
52.32
48.15
40.61
30.73
20.0
9.93
1.67
-4.39
-8.51
-11.44
-13.94
-16.53
-19.37
-22.37
-25.4
-28.32
-31.04
-33.29
-34.63
-34.52
-32.55
-28.78
-23.84
-18.78
-14.8
-12.75
-12.88
-14.78
-17.6
-20.44
-22.69
-24.3
-25.61
-27.16
-29.33
-32.13
-35.2
-38.03
-40.16
-41.39
-41.83
-41.83
-41.85
-42.26
-43.15
-44.25
-44.88
-44.12
-41.08
-35.27
-26.87
-16.76
-6.32
3.01
10.19
14.8
17.04
17.56
17.19
16.69
16.65
17.4
18.94
21.0
23.03
24.41
24.62
23.42
20.95
17.62
13.9
10.14
6.47
2.81
-0.94
-4.81
-8.87
-13.32
-18.64
-25.4
-33.97
-44.16
-55.1
-65.4
-73.53
-78.24
-78.77
-74.92
-66.96
-55.67
-42.32
-28.61
-16.32
-6.76
-0.23
4.06
7.61
11.8
17.13
22.91
27.59
29.54
27.91
23.1
16.74
11.05
8.07
8.92
13.53
20.82
29.17
37.1
43.57
48.14
50.79
51.68
51.01
48.96
45.88
42.27
38.7
35.6
33.18
31.36
29.91
28.57
27.18
25.8
24.69
24.33
25.28
27.99
32.4
37.77
42.59
45.03
43.44
37.06
26.25
12.33
-2.91
-17.87
-31.44
-42.99
-52.19
-58.7
-62.14
-62.13
-58.49
-51.34
-41.15
-28.79
-15.51
-2.86
7.52
14.15
16.14
13.3
6.26
-3.8
-15.42
-27.27
-38.33
-47.97
-55.92
-62.03
-66.07
-67.62
-66.14
-61.26
-53.06
-42.09
-29.13
-14.92
0.07
15.44
30.59
44.46
55.77
63.71
68.5
71.49
74.55
78.98
84.72
90.39
94.07
94.28
90.7
84.07
75.62
66.56
57.76
49.84
43.21
38.07
34.16
30.71
26.7
21.44
14.95
8.08
2.01
-2.54
-5.77
-8.82
-13.18
-19.78
-28.41
-37.53
-44.86
-48.29
-46.65
-40.03
-29.58
-17.0
-4.05
7.73
17.03
22.78
24.25
21.42
15.1
6.99
-1.0
-7.37
-11.79
-15.1
-18.8
-24.23
-31.79
-40.78
-49.84
-57.56
-63.0
-65.95
-66.72
-65.68
-63.03
-58.76
-52.96
-46.05
-38.92
-32.64
-28.11
-25.73
-25.29
-26.2
-27.81
-29.67
-31.51
-33.15
-34.35
-34.77
-34.13
-32.36
-29.84
-27.27
-25.39
-24.7
-25.2
-26.46
-27.86
-28.98
-29.71
-30.26
-30.95
-31.98
-33.4
-35.09
-36.91
-38.64
-40.03
-40.67
-40.13
-38.02
-34.19
-28.85
-22.47
-15.69
-9.06
-2.95
2.47
7.14
11.07
14.23
16.64
18.37
19.51
20.13
20.2
19.61
18.25
16.15
13.54
10.82
8.41
6.66
5.75
5.67
6.29
7.42
8.78
10.07
10.93
11.09
10.43
9.07
7.33
5.63
4.3
3.43
2.94
2.59
2.12
1.4
0.38
-0.88
-2.29
-3.79
-5.42
-7.33
-9.69
-12.71
-16.47
-20.88
-25.57
-29.91
-33.1
-34.42
-33.41
-30.05
-24.74
-18.14
-10.95
-3.68
3.35
9.97
16.11
21.62
26.36
30.25
33.26
35.48
37.06
38.13
38.81
39.18
39.35
39.46
39.66
40.11
40.92
42.1
43.55
45.02
46.22
46.84
46.71
45.83
44.38
42.57
40.58
38.45
36.11
33.47
30.46
27.08
23.32
19.14
14.44
9.21
3.53
-2.3
-7.88
-12.82
-16.94
-20.24
-22.99
-25.51
-28.17
-31.2
-34.68
-38.48
-42.26
-45.45
-47.39
-47.45
-45.3
-41.04
-35.17
-28.44
-21.61
-15.24
-9.58
-4.62
-0.25
3.66
7.15
10.22
12.85
15.06
16.86
18.27
19.23
19.69
19.65
19.27
18.85
18.71
19.11
20.1
21.47
22.91
24.06
24.71
24.78
24.3
23.35
21.97
20.23
18.21
16.07
13.94
11.94
10.07
8.28
6.46
4.6
2.74
1.02
-0.44
-1.59
-2.49
-3.38
-4.47
-5.94
-7.81
-9.93
-12.09
-14.16
-16.17
-18.33
-20.9
-23.96
-27.26
-30.19
-31.93
-31.77
-29.3
-24.7
-18.59
-11.84
-5.28
0.54
5.4
9.37
12.69
15.6
18.26
20.77
23.09
25.08
26.55
27.37
27.5
27.07
26.4
25.77
25.43
25.43
25.7
26.1
26.56
27.01
27.43
27.66
27.52
26.84
25.56
23.85
21.99
20.27
18.84
17.64
16.48
15.19
13.67
11.97
10.16
8.36
6.59
4.91
3.36
2.0
0.85
-0.16
-1.16
-2.32
-3.7
-5.25
-6.79
-8.14
-9.2
-10.04
-10.89
-12.04
-13.76
-16.14
-19.01
-21.89
-24.12
-25.0
-24.05
-21.21
-16.85
-11.67
-6.42
-1.69
2.26
5.44
8.03
10.23
12.21
14.06
15.78
17.31
18.54
19.35
19.66
19.51
19.06
18.53
18.14
18.02
18.16
18.46
18.75
18.89
18.76
18.26
17.39
16.21
14.84
13.47
12.22
11.16
10.25
9.39
8.47
7.45
6.38
5.34
4.47
3.79
3.29
2.88
2.46
2.01
1.52
1.03
0.52
-0.08
-0.89
-1.98
-3.31
-4.77
-6.14
-7.29
-8.22
-9.14
-10.36
-12.17
-14.68
-17.65
-20.53
-22.52
-22.87
-21.19
-17.59
-12.67
-7.25
-2.06
2.55
6.62
10.45
14.33
18.36
22.35
25.98
28.91
30.91
31.97
32.25
32.01
31.48
30.75
29.78
28.45
26.72
24.7
22.73
21.19
20.28
19.81
19.22
17.61
14.18
8.57
1.18
-6.82
-13.68
-17.63
-17.51
-13.24
-6.1
1.58
7.06
8.0
3.29
-6.56
-19.52
-32.65
-43.12
-49.27
-51.08
-50.12
-48.82
-49.38
-52.98
-59.36
-67.06
-74.03
-78.25
-78.27
-73.47
-64.12
-51.23
-36.28
-20.9
-6.38
6.55
17.65
27.02
34.73
40.77
45.16
48.11
50.2
52.16
54.57
57.53
60.5
62.48
62.5
59.93
54.82
47.84
40.09
32.77
26.89
23.05
21.38
21.68
23.62
26.84
31.08
36.0
41.03
45.33
47.97
48.25
46.12
42.36
38.3
35.22
33.87
34.09
35.02
35.5
34.53
31.62
26.79
20.4
12.95
4.8
-3.79
-12.64
-21.56
-30.21
-38.03
-44.33
-48.44
-50.0
-49.28
-47.23
-45.25
-44.76
-46.65
-51.04
-57.17
-63.6
-68.55
-70.39
-68.04
-61.27
-50.84
-38.28
-25.51
-14.32
-5.9
-0.72
1.45
1.3
-0.35
-2.77
-5.45
-8.11
-10.7
-13.23
-15.78
-18.31
-20.7
-22.74
-24.23
-25.13
-25.52
-25.61
-25.63
-25.76
-26.05
-26.47
-26.91
-27.24
-27.37
-27.25
-26.92
-26.54
-26.46
-27.14
-28.95
-31.9
-35.42
-38.39
-39.54
-37.97
-33.59
-27.2
-20.2
-13.98
-9.44
-6.82
-5.9
-6.32
-7.87
-10.45
-13.9
-17.81
-21.56
-24.58
-26.61
-27.85
-28.81
-30.08
-31.94
-34.2
-36.25
-37.22
-36.38
-33.39
-28.43
-22.16
-15.49
-9.28
-4.05
0.03
3.17
5.67
7.82
9.74
11.45
12.87
13.96
14.73
15.22
15.45
15.42
15.1
14.55
13.88
13.26
12.85
12.72
12.85
13.08
13.28
13.3
13.12
12.72
12.14
11.33
10.23
8.75
6.82
4.49
1.86
-0.88
-3.49
-5.72
-7.41
-8.5
-9.06
-9.28
-9.44
-9.76
-10.38
-11.25
-12.19
-12.95
-13.35
-13.41
-13.37
-13.68
-14.76
-16.87
-19.89
-23.36
-26.51
-28.51
-28.69
-26.77
-22.89
-17.54
-11.48
-5.43
0.06
4.73
8.59
11.79
14.51
16.81
18.68
20.07
20.96
21.45
21.65
21.69
21.66
21.58
21.49
21.42
21.43
21.6
21.98
22.59
23.32
24.03
24.51
24.59
24.19
23.29
22.02
20.54
19.0
17.56
16.3
15.25
14.36
13.5
12.49
11.17
9.46
7.42
5.25
3.17
1.33
-0.26
-1.78
-3.44
-5.46
-7.9
-10.72
-13.73
-16.74
-19.55
-22.07
-24.35
-26.57
-29.0
-31.82
-35.02
-38.16
-40.47
-41.04
-39.12
-34.5
-27.52
-19.04
-10.15
-1.89
4.99
10.0
13.14
15.03
17.0
20.93
28.7
41.35
58.53
78.4
98.32
115.77
129.32
138.89
145.4
150.04
153.59
156.15
157.4
157.08
155.3
152.55
149.39
146.1
142.46
137.77
131.01
121.11
107.26
89.11
67.07
42.3
16.75
-7.22
-27.27
-41.68
-49.81
-52.2
-50.42
-46.53
-42.65
-40.45
-40.96
-44.39
-50.25
-57.49
-64.94
-71.69
-77.44
-82.54
-87.69
-93.58
-100.44
-107.91
-115.19
-121.33
-125.48
-127.03
-125.67
-121.29
-114.12
-104.71
-93.96
-82.99
-72.81
-64.1
-57.0
-51.25
-46.39
-41.95
-37.65
-33.41
-29.28
-25.42
-21.97
-19.01
-16.51
-14.26
-11.94
-9.22
-5.87
-1.87
2.62
7.31
11.86
15.97
19.42
22.09
23.97
25.11
25.63
25.67
25.34
24.71
23.87
22.92
21.97
21.15
20.5
19.97
19.42
18.72
17.78
16.59
15.27
14.02
13.04
12.46
12.34
12.59
13.04
13.48
13.79
14.02
14.37
15.09
16.34
18.09
20.14
22.34
24.72
27.54
31.16
35.93
42.05
49.68
58.96
69.91
82.3
95.43
108.18
119.35
128.07
133.98
137.16
137.57
134.73
127.79
116.1
100.06
81.47
63.15
47.64
36.01
27.1
18.13
6.16
-10.49
-31.43
-55.02
-79.42
-104.08
-129.94
-158.71
-191.85
-229.88
-272.48
-318.95
-368.29
-418.34
-464.94
-501.79
-521.94
-520.52
-497.01
-455.89
-404.89
-351.92
-302.28
-257.7
-217.21
-179.05
-142.3
-107.08
-73.85
-42.46
-11.75
20.07
54.67
93.01
134.85
178.4
220.55
257.18
284.03
298.07
298.4
286.49
265.47
238.91
209.7
179.66
149.86
121.42
95.86
74.76
58.98
47.99
39.99
32.75
24.84
16.4
9.04
4.89
5.34
10.11
17.21
23.71
26.86
25.02
17.95
6.59
-7.53
-22.77
-37.57
-50.51
-60.36
-66.15
-67.33
-63.71
-55.38
-42.7
-26.31
-7.31
12.68
31.79
48.39
61.67
71.83
79.77
86.58
92.89
98.76
103.92
108.21
111.87
115.45
119.49
124.02
128.35
131.32
131.93
130.03
126.7
124.02
124.24
128.74
137.32
148.2
158.76
166.67
170.66
170.58
167.0
160.52
151.51
140.25
127.31
113.68
100.5
88.58
77.96
68.1
58.34
48.48
39.06
31.19
25.98
24.08
25.43
29.25
34.41
39.68
44.01
46.76
47.91
48.12
48.44
50.04
53.53
58.55
63.62
66.41
64.43
55.89
40.31
18.74
-6.57
-32.86
-57.7
-79.57
-97.97
-113.14
-125.39
-134.69
-140.49
-142.03
-138.89
-131.45
-120.95
-109.16
-97.79
-88.0
-80.08
-73.64
-67.94
-62.31
-56.35
-50.01
-43.43
-36.86
-30.67
-25.4
-21.88
-21.09
-23.86
-30.49
-40.39
-52.0
-63.03
-71.07
-74.29
-72.11
-65.49
-56.57
-48.01
-42.07
-40.03
-42.01
-47.35
-55.03
-64.14
-73.88
-83.46
-91.92
-98.15
-101.1
-100.14
-95.2
-86.84
-75.93
-63.45
-50.3
-37.27
-25.05
-14.29
-5.53
1.01
5.55
8.84
12.04
16.24
22.1
29.51
37.56
44.95
50.56
53.91
55.28
55.52
55.51
55.82
56.55
57.43
58.16
58.53
58.52
58.16
57.45
56.28
54.54
52.26
49.63
47.0
44.7
42.91
41.51
40.2
38.54
36.16
32.89
28.78
24.08
19.13
14.21
9.52
5.03
0.6
-3.95
-8.74
-13.66
-18.43
-22.62
-25.86
-27.98
-29.09
-29.61
-30.06
-30.97
-32.73
-35.5
-39.25
-43.8
-48.8
-53.71
-57.77
-60.06
-59.69
-56.18
-49.64
-40.86
-31.16
-21.92
-14.16
-8.32
-4.18
-1.19
1.29
3.69
6.13
8.48
10.46
11.78
12.25
11.88
10.86
9.54
8.29
7.35
6.82
6.6
6.53
6.5
6.45
6.33
6.05
5.42
4.21
2.32
-0.16
-2.88
-5.44
-7.52
-9.01
-10.09
-11.07
-12.25
-13.75
-15.51
-17.33
-18.97
-20.29
-21.29
-22.11
-23.03
-24.33
-26.27
-28.98
-32.41
-36.3
-40.21
-43.53
-45.7
-46.25
-44.95
-41.91
-37.52
-32.34
-26.96
-21.84
-17.26
-13.28
-9.74
-6.47
-3.3
-0.24
2.53
4.76
6.21
6.86
6.92
6.81
6.99
7.76
9.19
11.12
13.31
15.52
17.59
19.41
20.89
21.87
22.24
22.01
21.32
20.45
19.66
19.06
18.63
18.16
17.47
16.47
15.22
13.9
12.69
11.73
11.03
10.46
9.83
8.91
7.5
5.57
3.18
0.53
-2.12
-4.56
-6.68
-8.57
-10.44
-12.64
-15.46
-19.05
-23.24
-27.5
-31.02
-32.93
-32.56
-29.69
-24.69
-18.37
-11.73
-5.65
-0.59
3.4
6.63
9.52
12.4
15.39
18.39
21.13
23.32
24.8
25.53
25.66
25.37
24.87
24.3
23.72
23.21
22.8
22.56
22.51
22.64
22.83
22.88
22.62
21.94
20.87
19.55
18.22
17.09
16.27
15.72
15.31
14.82
14.06
12.92
11.42
9.63
7.7
5.75
3.9
2.18
0.54
-1.11
-2.93
-4.99
-7.3
-9.76
-12.21
-14.55
-16.74
-18.9
-21.2
-23.81
-26.87
-30.35
-34.0
-37.37
-39.83
-40.68
-39.41
-35.86
-30.36
-23.7
-16.83
-10.59
-5.39
-1.19
2.44
6.01
9.85
13.98
18.14
21.91
24.89
26.84
27.7
27.63
26.94
25.99
25.18
24.8
25.01
25.79
26.98
28.32
29.6
30.64
31.36
31.78
31.98
32.04
32.11
32.3
32.72
33.36
34.06
34.5
34.39
33.62
32.4
31.22
30.68
31.19
32.79
35.15
37.61
39.44
39.99
38.76
35.42
29.89
22.34
13.22
3.26
-6.7
-15.94
-24.03
-30.91
-36.77
-41.89
-46.39
-50.24
-53.3
-55.45
-56.73
-57.24
-57.1
-56.27
-54.57
-51.82
-48.06
-43.59
-38.98
-34.76
-31.19
-28.13
-25.17
-21.84
-17.86
-13.35
-8.68
-4.38
-0.88
1.66
3.38
4.59
5.66
6.8
8.05
9.32
10.5
11.55
12.55
13.58
14.65
15.66
16.41
16.7
16.46
15.75
14.75
13.74
12.9
12.34
12.06
11.93
11.81
11.6
11.3
10.96
10.68
10.5
10.41
10.37
10.35
10.32
10.26
10.1
9.77
9.2
8.39
7.45
6.55
5.84
5.37
5.1
4.93
4.85
4.88
5.12
5.6
6.27
6.97
7.52
7.76
7.67
7.29
6.77
6.24
5.78
5.47
5.31
5.29
5.35
5.35
5.14
4.62
3.81
2.83
1.86
1.0
0.28
-0.41
-1.19
-2.04
-2.83
-3.33
-3.4
-3.03
-2.4
-1.74
-1.23
-0.94
-0.83
-0.93
-1.29
-2.08
-3.4
-5.2
-7.3
-9.4
-11.25
-12.73
-13.82
-14.56
-14.99
-15.1
-14.95
-14.64
-14.41
-14.51
-15.17
-16.43
-18.16
-20.14
-22.05
-23.53
-24.14
-23.46
-21.2
-17.33
-12.18
-6.41
-0.92
3.37
5.72
5.71
3.44
-0.43
-4.8
-8.34
-9.99
-9.29
-6.49
-2.43
1.92
5.84
9.06
11.61
13.53
14.61
14.46
12.74
9.5
5.21
0.69
-3.26
-6.13
-7.8
-8.46
-8.48
-8.19
-7.87
-7.71
-7.87
-8.44
-9.43
-10.73
-12.1
-13.28
-13.97
-14.01
-13.35
-12.11
-10.54
-9.01
-7.81
-7.07
-6.74
-6.66
-6.67
-6.71
-6.9
-7.42
-8.44
-10.01
-11.97
-14.03
-15.74
-16.62
-16.29
-14.54
-11.43
-7.36
-2.91
1.27
4.68
7.11
8.68
9.69
10.5
11.31
12.12
12.69
12.67
11.71
9.67
6.73
3.4
0.44
-1.39
-1.58
0.01
3.03
6.82
10.65
13.97
16.59
18.78
21.01
23.73
27.18
31.21
35.5
39.65
43.37
46.54
49.03
50.66
51.07
49.86
46.78
41.86
35.37
27.71
19.24
10.26
1.08
-7.87
-16.03
-22.97
-28.58
-33.22
-37.48
-41.78
-45.89
-48.74
-48.83
-44.83
-36.4
-24.46
-10.96
1.85
12.25
19.48
23.8
26.0
26.95
27.21
26.98
26.26
25.12
23.72
22.31
21.09
20.1
19.3
18.58
17.9
17.29
16.81
16.5
16.3
16.03
15.39
14.12
12.02
9.14
5.7
2.05
-1.46
-4.66
-7.55
-10.24
-12.83
-15.33
-17.62
-19.54
-21.11
-22.52
-24.13
-26.26
-29.05
-32.35
-35.8
-39.1
-42.1
-44.92
-47.78
-50.89
-54.32
-58.02
-61.89
-65.76
-69.28
-71.73
-72.04
-69.09
-62.23
-51.78
-39.07
-26.08
-14.73
-6.22
-0.7
2.5
4.41
5.88
7.33
8.72
9.81
10.35
10.28
9.7
8.84
7.9
7.06
6.37
5.86
5.57
5.59
6.05
6.96
8.13
9.18
9.62
9.04
7.32
4.71
1.69
-1.15
-3.31
-4.54
-4.89
-4.65
-4.25
-4.16
-4.73
-6.07
-8.09
-10.47
-12.8
-14.74
-16.18
-17.16
-17.95
-18.9
-20.36
-22.61
-25.74
-29.64
-33.93
-38.0
-41.11
-42.55
-41.81
-38.74
-33.61
-27.09
-20.06
-13.38
-7.65
-3.06
0.57
3.67
6.64
9.64
12.55
15.02
16.7
17.42
17.24
16.47
15.48
14.62
14.08
13.93
14.13
14.61
15.29
16.08
16.87
17.54
17.97
18.07
17.8
17.14
16.17
14.97
13.62
12.16
10.63
9.0
7.27
5.44
3.5
1.45
-0.7
-2.92
-5.14
-7.2
-8.96
-10.33
-11.37
-12.26
-13.31
-14.75
-16.73
-19.24
-22.18
-25.34
-28.42
-30.95
-32.33
-31.97
-29.47
-24.89
-18.77
-12.0
-5.47
0.2
4.88
8.8
12.33
15.73
19.0
21.89
24.13
25.51
26.07
26.01
25.66
25.29
25.12
25.24
25.64
26.25
26.96
27.61
28.07
28.23
28.04
27.53
26.74
25.72
24.49
23.07
21.52
19.96
18.53
17.33
16.33
15.38
14.3
12.99
11.48
9.94
8.54
7.36
6.33
5.25
3.95
2.3
0.35
-1.76
-3.86
-5.79
-7.51
-8.99
-10.35
-11.75
-13.45
-15.72
-18.7
-22.29
-26.02
-29.14
-30.81
-30.39
-27.67
-22.97
-17.06
-10.84
-5.09
-0.22
3.77
7.11
10.17
13.18
16.2
19.13
21.73
23.83
25.28
26.04
26.19
25.88
25.3
24.64
24.08
23.74
23.67
23.82
24.12
24.43
24.63
24.59
24.23
23.51
22.44
21.11
19.61
18.04
16.53
15.16
14.03
13.19
12.61
12.15
11.64
10.88
9.8
8.49
7.11
5.89
4.9
4.06
3.15
1.97
0.42
-1.43
-3.41
-5.36
-7.2
-8.9
-10.42
-11.77
-12.9
-13.86
-14.77
-15.87
-17.38
-19.42
-21.91
-24.53
-26.8
-28.18
-28.19
-26.58
-23.43
-19.09
-14.1
-9.08
-4.49
-0.59
2.62
5.32
7.75
10.09
12.44
14.72
16.78
18.41
19.41
19.72
19.37
18.58
17.62
16.78
16.24
16.06
16.19
16.49
16.79
16.93
16.78
16.26
15.36
14.12
12.68
11.28
10.13
9.4
9.09
9.03
8.96
8.65
7.99
7.05
6.03
5.15
4.57
4.28
4.16
4.04
3.84
3.53
3.15
2.77
2.41
2.08
1.76
1.44
1.17
1.01
0.98
1.07
1.2
1.29
1.25
1.08
0.77
0.42
0.08
-0.18
-0.32
-0.31
-0.21
-0.13
-0.2
-0.52
-1.11
-1.83
-2.48
-2.87
-2.91
-2.64
-2.22
-1.8
-1.48
-1.3
-1.25
-1.32
-1.52
-1.83
-2.19
-2.53
-2.81
-3.06
-3.35
-3.79
-4.38
-5.04
-5.65
-6.07
-6.25
-6.26
-6.25
-6.34
-6.62
-7.11
-7.75
-8.49
-9.26
-10.02
-10.73
-11.37
-11.92
-12.42
-12.95
-13.59
-14.42
-15.47
-16.7
-17.99
-19.26
-20.4
-21.43
-22.4
-23.44
-24.7
-26.23
-27.91
-29.33
-29.92
-29.03
-26.29
-21.76
-15.96
-9.8
-4.15
0.35
3.48
5.46
6.67
7.55
8.37
9.25
10.18
11.08
11.87
12.49
12.9
13.08
12.98
12.58
11.93
11.13
10.34
9.76
9.5
9.57
9.82
10.01
9.91
9.43
8.57
7.47
6.33
5.31
4.47
3.8
3.22
2.67
2.12
1.6
1.12
0.64
0.08
-0.67
-1.63
-2.71
-3.78
-4.7
-5.42
-5.98
-6.49
-7.01
-7.62
-8.32
-9.15
-10.12
-11.27
-12.52
-13.77
-14.87
-15.77
-16.51
-17.31
-18.37
-19.89
-21.93
-24.38
-26.94
-29.14
-30.42
-30.21
-28.18
-24.37
-19.28
-13.72
-8.55
-4.41
-1.53
0.28
1.42
2.3
3.22
4.31
5.59
6.98
8.39
9.63
10.5
10.84
10.6
9.95
9.18
8.64
8.51
8.8
9.29
9.69
9.8
9.54
8.98
8.25
7.42
6.54
5.57
4.53
3.5
2.56
1.79
1.16
0.56
-0.11
-0.91
-1.84
-2.8
-3.68
-4.45
-5.12
-5.77
-6.48
-7.26
-8.09
-8.91
-9.66
-10.33
-11.0
-11.79
-12.84
-14.22
-15.89
-17.7
-19.51
-21.26
-23.02
-25.06
-27.59
-30.67
-34.03
-37.05
-38.98
-39.13
-37.21
-33.4
-28.3
-22.69
-17.31
-12.58
-8.67
-5.46
-2.74
-0.33
1.95
4.2
6.43
8.58
10.52
12.06
13.08
13.57
13.68
13.62
13.58
13.64
13.79
13.98
14.21
14.52
15.0
15.68
16.51
17.35
18.05
18.52
18.75
18.8
18.69
18.41
17.89
17.01
15.68
13.88
11.66
9.16
6.52
3.87
1.31
-1.17
-3.65
-6.25
-9.08
-12.16
-15.42
-18.68
-21.71
-24.33
-26.46
-28.2
-29.8
-31.55
-33.68
-36.26
-39.1
-41.8
-43.82
-44.63
-43.83
-41.31
-37.23
-32.02
-26.2
-20.26
-14.5
-8.96
-3.45
2.32
8.59
15.32
22.19
28.7
34.31
38.62
41.53
43.15
43.76
43.62
42.99
42.06
41.02
40.03
39.2
38.5
37.81
36.92
35.64
33.92
31.8
29.43
26.93
24.4
21.88
19.44
17.15
15.06
13.2
11.47
9.7
7.72
5.46
2.94
0.3
-2.34
-4.9
-7.38
-9.79
-12.13
-14.41
-16.72
-19.24
-22.22
-25.82
-30.01
-34.49
-38.79
-42.47
-45.33
-47.51
-49.44
-51.59
-54.22
-57.17
-59.81
-61.3
-60.77
-57.72
-52.14
-44.51
-35.69
-26.63
-18.13
-10.68
-4.39
0.95
5.72
10.29
14.9
19.49
23.8
27.48
30.23
31.98
32.84
33.11
33.12
33.13
33.34
33.84
34.69
35.84
37.2
38.56
39.67
40.3
40.33
39.8
38.86
37.69
36.46
35.24
34.05
32.85
31.66
30.46
29.29
28.18
27.16
26.24
25.41
24.64
23.87
23.01
22.03
20.93
19.8
18.77
17.92
17.24
16.64
15.98
15.17
14.2
13.14
12.15
11.36
10.83
10.57
10.53
10.64
10.89
11.27
11.89
12.91
14.58
17.2
20.98
25.88
31.54
37.21
42.02
45.18
46.32
45.56
43.42
40.52
37.33
33.97
30.3
26.19
21.71
17.22
13.21
10.04
7.76
6.05
4.41
2.49
0.23
-2.15
-4.26
-5.82
-6.79
-7.34
-7.75
-8.18
-8.66
-9.01
-8.94
-8.24
-6.79
-4.72
-2.34
-0.05
1.79
2.96
3.5
3.59
3.55
3.67
4.14
5.05
6.36
7.96
9.6
10.9
11.35
10.41
7.73
3.29
-2.47
-8.73
-14.54
-19.15
-22.28
-24.17
-25.37
-26.41
-27.52
-28.46
-28.64
-27.47
-24.59
-20.1
-14.5
-8.49
-2.75
2.22
6.18
9.01
10.8
11.77
12.31
12.97
14.24
16.35
19.01
21.47
22.73
21.89
18.56
12.91
5.61
-2.43
-10.39
-17.73
-24.15
-29.61
-34.17
-37.91
-40.97
-43.52
-45.71
-47.72
-49.65
-51.59
-53.61
-55.83
-58.43
-61.58
-65.43
-69.95
-75.03
-80.42
-85.95
-91.67
-97.79
-104.67
-112.6
-121.71
-131.77
-142.23
-152.18
-160.54
-166.32
-168.98
-168.58
-165.7
-161.04
-154.88
-146.85
-135.98
-121.23
-102.0
-78.57
-52.14
-24.66
1.64
24.59
42.6
54.98
62.19
65.69
67.45
69.18
71.73
74.99
78.17
80.36
80.97
79.71
76.37
70.7
62.42
51.59
38.86
25.5
13.14
3.26
-3.21
-6.16
-6.08
-3.84
-0.32
3.85
8.3
12.84
17.33
21.63
25.54
28.98
32.03
34.9
37.8
40.67
43.04
44.05
42.66
38.1
30.22
19.59
7.37
-5.09
-16.63
-26.5
-34.24
-39.49
-41.71
-40.33
-34.99
-25.98
-14.37
-1.79
10.23
20.79
29.94
38.41
46.98
55.92
64.8
72.73
78.86
82.89
85.06
85.93
85.87
84.81
82.28
77.72
70.97
62.4
52.93
43.62
35.3
28.35
22.67
17.89
13.62
9.65
5.86
2.23
-1.31
-4.87
-8.48
-11.98
-14.95
-16.93
-17.6
-17.08
-15.95
-15.1
-15.36
-17.2
-20.61
-25.12
-29.98
-34.35
-37.54
-39.08
-38.9
-37.32
-35.09
-33.14
-32.39
-33.42
-36.39
-41.05
-46.82
-52.89
-58.28
-61.84
-62.39
-58.94
-51.14
-39.54
-25.58
-11.25
1.57
11.56
18.41
22.6
25.19
27.24
29.53
32.42
35.89
39.71
43.65
47.61
51.51
55.28
58.78
61.8
64.16
65.85
67.11
68.32
69.89
71.96
74.23
76.05
76.62
75.39
72.24
67.58
62.2
56.95
52.47
48.96
46.19
43.68
40.98
37.9
34.61
31.59
29.33
28.16
28.01
28.51
29.02
28.93
27.78
25.4
21.89
17.57
12.81
8.0
3.39
-0.93
-4.96
-8.75
-12.3
-15.53
-18.37
-20.8
-22.97
-25.2
-27.91
-31.46
-36.04
-41.48
-47.22
-52.43
-56.15
-57.57
-56.28
-52.32
-46.23
-38.78
-30.82
-23.02
-15.79
-9.27
-3.4
1.99
7.09
11.98
16.6
20.69
23.86
25.77
26.3
25.62
24.22
22.72
21.67
21.38
21.88
22.91
24.11
25.12
25.67
25.6
24.89
23.63
21.96
20.11
18.26
16.62
15.29
14.35
13.76
13.43
13.19
12.87
12.33
11.48
10.37
9.13
7.93
6.88
6.04
5.34
4.69
3.99
3.22
2.4
1.61
0.93
0.41
0.05
-0.24
-0.53
-0.93
-1.54
-2.39
-3.48
-4.76
-6.16
-7.61
-9.04
-10.33
-11.37
-12.12
-12.63
-13.11
-13.88
-15.26
-17.32
-19.9
-22.56
-24.87
-26.6
-27.84
-28.98
-30.5
-32.78
-35.95
-39.81
-43.88
-47.46
-49.73
-49.89
-47.41
-42.25
-34.95
-26.49
-18.05
-10.57
-4.48
0.34
4.43
8.35
12.51
16.99
21.6
25.98
29.74
32.57
34.28
34.92
34.68
33.91
33.01
32.33
32.05
32.23
32.77
33.48
34.13
34.44
34.21
33.3
31.73
29.66
27.35
25.08
23.05
21.34
19.92
18.68
17.52
16.32
15.01
13.56
12.05
10.58
9.33
8.43
7.85
7.48
7.1
6.48
5.5
4.14
2.46
0.61
-1.27
-3.06
-4.66
-6.01
-7.15
-8.14
-9.1
-10.18
-11.41
-12.77
-14.13
-15.38
-16.51
-17.6
-18.83
-20.37
-22.24
-24.31
-26.35
-28.14
-29.58
-30.76
-31.93
-33.35
-35.27
-37.85
-41.18
-45.12
-49.25
-52.84
-54.92
-54.63
-51.52
-45.85
-38.54
-30.82
-23.8
-18.1
-13.7
-10.15
-6.81
-3.23
0.76
5.0
9.13
12.73
15.46
17.14
17.83
17.76
17.32
16.88
16.72
16.95
17.58
18.51
19.63
20.79
21.8
22.46
22.59
22.12
21.1
19.72
18.22
16.86
15.8
15.12
14.77
14.58
14.29
13.66
12.55
10.98
9.16
7.39
5.92
4.88
4.18
3.64
3.04
2.28
1.35
0.33
-0.7
-1.68
-2.6
-3.47
-4.32
-5.15
-5.98
-6.88
-7.95
-9.26
-10.79
-12.44
-14.07
-15.58
-16.99
-18.41
-20.01
-21.86
-23.96
-26.17
-28.33
-30.34
-32.19
-33.97
-35.83
-37.92
-40.29
-42.92
-45.53
-47.67
-48.62
-47.67
-44.3
-38.46
-30.68
-21.9
-13.23
-5.54
0.75
5.69
9.66
13.15
16.51
19.93
23.41
26.8
29.88
32.4
34.12
34.96
35.0
34.52
33.91
33.52
33.55
34.06
34.95
36.07
37.27
38.41
39.36
39.96
40.11
39.8
39.12
38.26
37.43
36.79
36.43
36.39
36.58
36.88
37.13
37.15
36.8
36.08
35.06
33.89
32.72
31.58
30.42
29.11
27.51
25.47
22.88
19.69
15.92
11.71
7.32
2.96
-1.26
-5.46
-9.91
-14.82
-20.21
-25.79
-31.06
-35.61
-39.34
-42.55
-45.81
-49.64
-54.28
-59.55
-64.96
-70.0
-74.32
-77.9
-80.96
-83.83
-86.86
-90.34
-94.5
-99.38
-104.56
-109.04
-111.26
-109.61
-103.09
-91.94
-77.75
-62.99
-50.1
-40.63
-34.81
-31.76
-30.12
-28.69
-26.92
-24.85
-22.9
-21.51
-21.02
-21.47
-22.67
-24.15
-25.27
-25.35
-23.89
-20.69
-15.94
-10.17
-4.09
1.7
6.92
11.77
16.83
22.89
30.56
39.91
50.26
60.35
68.69
74.19
76.59
76.59
75.54
74.8
75.1
76.06
76.27
73.74
66.67
54.13
36.46
15.27
-7.02
-27.86
-45.13
-57.68
-65.36
-68.76
-68.84
-66.49
-62.37
-56.94
-50.61
-43.86
-37.22
-31.15
-25.92
-21.54
-17.92
-14.97
-12.78
-11.48
-11.1
-11.42
-11.99
-12.35
-12.21
-11.55
-10.55
-9.41
-8.31
-7.43
-6.97
-7.18
-8.19
-9.71
-11.08
-11.34
-9.77
-6.19
-1.05
4.79
10.52
15.64
19.99
23.43
25.7
26.41
25.31
22.57
18.78
14.63
10.45
5.97
0.49
-6.49
-14.68
-22.74
-28.61
-30.28
-26.6
-17.73
-5.01
9.64
24.43
38.24
50.72
62.0
72.18
81.02
87.91
92.2
93.7
92.86
90.71
88.37
86.63
85.61
84.9
83.87
82.06
79.37
76.02
72.3
68.4
64.38
60.13
55.52
50.35
44.41
37.45
29.27
19.76
9.0
-2.78
-15.23
-27.94
-40.47
-52.33
-63.08
-72.39
-80.23
-86.89
-92.9
-98.84
-105.01
-111.1
-116.18
-118.91
-117.98
-112.73
-103.37
-91.02
-77.33
-63.88
-51.81
-41.6
-33.21
-26.26
-20.25
-14.68
-9.04
-2.92
3.93
11.47
19.34
26.93
33.64
39.02
42.98
45.75
47.8
49.6
51.45
53.32
54.95
55.97
56.14
55.53
54.47
53.42
52.69
52.32
52.13
51.91
51.53
51.08
50.76
50.71
50.91
51.17
51.25
50.96
50.28
49.33
48.24
47.07
45.81
44.31
42.44
40.08
37.27
34.09
30.73
27.33
23.94
20.51
16.86
12.84
8.41
3.74
-0.86
-5.1
-8.77
-11.94
-14.86
-17.91
-21.45
-25.73
-30.87
-36.82
-43.23
-49.38
-54.24
-56.61
-55.53
-50.73
-42.77
-32.97
-22.97
-14.12
-7.1
-1.86
2.17
5.64
8.96
12.16
15.0
17.14
18.31
18.46
17.73
16.38
14.79
13.28
12.1
11.34
10.96
10.87
10.94
11.08
11.2
11.21
10.95
10.34
9.34
8.08
6.78
5.7
4.94
4.45
4.01
3.38
2.42
1.18
-0.13
-1.29
-2.16
-2.77
-3.34
-4.08
-5.12
-6.45
-7.89
-9.24
-10.4
-11.41
-12.42
-13.65
-15.22
-17.13
-19.27
-21.47
-23.6
-25.56
-27.35
-29.0
-30.64
-32.47
-34.7
-37.5
-40.73
-43.92
-46.17
-46.42
-43.83
-38.16
-29.93
-20.33
-10.77
-2.43
4.09
8.87
12.37
15.18
17.66
19.87
21.58
22.52
22.52
21.61
20.05
18.23
16.57
15.38
14.82
14.9
15.49
16.45
17.62
18.88
20.12
21.23
22.11
22.68
22.9
22.82
22.55
22.3
22.18
22.23
22.28
22.05
21.32
19.98
18.17
16.19
14.32
12.67
11.13
9.43
7.29
4.67
1.72
-1.19
-3.71
-5.63
-7.03
-8.24
-9.68
-11.75
-14.64
-18.3
-22.46
-26.73
-30.74
-34.27
-37.28
-39.97
-42.66
-45.67
-49.15
-52.83
-56.01
-57.61
-56.52
-52.12
-44.53
-34.76
-24.32
-14.72
-6.93
-1.13
3.13
6.52
9.55
12.35
14.74
16.47
17.45
17.77
17.67
17.33
16.84
16.2
15.46
14.75
14.31
14.31
14.83
15.74
16.77
17.64
18.12
18.07
17.45
16.3
14.72
12.89
11.03
9.36
8.03
7.03
6.21
5.36
4.3
2.98
1.5
0.1
-1.03
-1.77
-2.18
-2.44
-2.79
-3.41
-4.35
-5.52
-6.76
-7.9
-8.9
-9.83
-10.86
-12.18
-13.89
-15.95
-18.22
-20.48
-22.53
-24.28
-25.78
-27.18
-28.69
-30.56
-32.98
-36.01
-39.49
-42.93
-45.51
-46.26
-44.37
-39.51
-32.06
-23.03
-13.77
-5.5
1.02
5.65
8.73
10.8
12.35
13.62
14.69
15.51
16.02
16.22
16.19
15.99
15.69
15.32
14.92
14.53
14.26
14.24
14.55
15.17
15.97
16.72
17.2
17.23
16.78
15.91
14.75
13.44
12.14
10.98
10.08
9.46
9.07
8.79
8.47
8.02
7.41
6.73
6.08
5.5
4.97
4.36
3.57
2.53
1.28
-0.08
-1.43
-2.71
-3.93
-5.21
-6.69
-8.51
-10.72
-13.24
-15.87
-18.38
-20.57
-22.41
-24.01
-25.65
-27.64
-30.2
-33.36
-36.91
-40.36
-43.04
-44.15
-43.03
-39.3
-33.07
-25.01
-16.16
-7.67
-0.47
5.01
8.88
11.59
13.75
15.85
18.07
20.36
22.47
24.12
25.11
25.35
24.9
23.95
22.76
21.6
20.72
20.29
20.36
20.81
21.45
22.0
22.21
21.9
21.04
19.7
18.06
16.33
14.74
13.42
12.44
11.72
11.1
10.38
9.45
8.29
7.06
5.93
4.97
4.16
3.35
2.39
1.22
-0.1
-1.39
-2.53
-3.47
-4.28
-5.13
-6.17
-7.5
-9.1
-10.92
-12.84
-14.76
-16.59
-18.29
-19.91
-21.54
-23.38
-25.69
-28.69
-32.46
-36.73
-40.84
-43.76
-44.43
-42.1
-36.68
-28.88
-19.95
-11.29
-3.99
1.37
4.81
6.74
7.72
8.26
8.8
9.57
10.63
11.84
12.9
13.5
13.46
12.84
11.91
11.08
10.62
10.67
11.17
11.98
12.97
14.04
15.12
16.06
16.64
16.68
16.11
15.06
13.75
12.46
11.33
10.4
9.59
8.83
8.08
7.35
6.65
5.98
5.31
4.54
3.63
2.57
1.36
0.03
-1.36
-2.78
-4.18
-5.55
-6.91
-8.32
-9.84
-11.55
-13.48
-15.59
-17.79
-20.02
-22.21
-24.36
-26.6
-29.07
-31.87
-34.87
-37.57
-39.17
-38.83
-35.97
-30.58
-23.29
-15.17
-7.36
-0.69
4.48
8.26
11.07
13.36
15.43
17.41
19.2
20.63
21.52
21.77
21.44
20.78
20.09
19.64
19.54
19.72
20.07
20.43
20.73
20.94
21.04
20.94
20.54
19.73
18.48
16.91
15.17
13.43
11.84
10.41
9.12
7.88
6.63
5.32
3.96
2.61
1.29
0.03
-1.23
-2.56
-4.02
-5.62
-7.31
-9.03
-10.72
-12.39
-14.14
-16.03
-18.09
-20.24
-22.38
-24.38
-26.22
-27.96
-29.74
-31.76
-34.21
-37.2
-40.61
-44.02
-46.68
-47.66
-46.16
-41.81
-34.88
-26.21
-17.02
-8.5
-1.48
3.75
7.41
10.03
12.22
14.46
16.94
19.55
21.98
23.91
25.1
25.56
25.45
25.04
24.59
24.28
24.22
24.44
24.91
25.55
26.24
26.8
27.05
26.83
26.07
24.83
23.26
21.56
19.95
18.57
17.48
16.59
15.76
14.8
13.64
12.3
10.91
9.62
8.5
7.54
6.59
5.48
4.11
2.46
0.67
-1.11
-2.77
-4.35
-6.03
-7.99
-10.37
-13.13
-16.09
-18.97
-21.53
-23.65
-25.44
-27.15
-29.19
-31.99
-35.96
-41.21
-47.49
-54.1
-59.95
-63.93
-65.19
-63.56
-59.57
-54.3
-49.0
-44.68
-41.86
-40.43
-39.94
-39.74
-39.36
-38.58
-37.47
-36.35
-35.67
-35.83
-37.04
-39.21
-41.86
-44.23
-45.43
-44.72
-41.75
-36.57
-29.64
-21.65
-13.36
-5.45
1.56
7.45
12.36
16.85
21.72
27.76
35.35
44.22
53.42
61.6
67.45
70.07
69.24
65.33
59.12
51.54
43.42
35.36
27.77
20.9
14.91
9.86
5.79
2.59
0.05
-2.12
-4.23
-6.46
-8.85
-11.24
-13.43
-15.27
-16.78
-18.2
-19.84
-21.96
-24.61
-27.47
-29.93
-31.24
-30.71
-27.97
-23.11
-16.63
-9.32
-1.95
4.91
11.08
16.65
21.9
27.05
32.12
36.93
41.17
44.54
46.93
48.47
49.53
50.55
51.95
54.03
56.9
60.56
64.87
69.56
74.13
77.92
80.2
80.4
78.36
74.47
69.54
64.57
60.37
57.34
55.34
53.93
52.53
50.68
48.13
44.83
40.84
36.2
30.95
25.19
19.13
13.15
7.67
2.95
-1.04
-4.7
-8.62
-13.31
-18.93
-25.19
-31.49
-37.27
-42.29
-46.7
-51.01
-55.7
-61.09
-67.17
-73.64
-80.0
-85.69
-90.13
-92.85
-93.51
-92.06
-88.75
-84.08
-78.71
-73.23
-68.06
-63.33
-58.97
-54.81
-50.65
-46.44
-42.27
-38.3
-34.73
-31.61
-28.89
-26.32
-23.61
-20.55
-17.03
-13.09
-8.83
-4.36
0.32
5.26
10.57
16.31
22.41
28.66
34.69
40.13
44.76
48.6
51.91
55.06
58.24
61.27
63.53
64.03
61.71
55.8
46.14
33.25
18.35
3.01
-11.23
-23.16
-32.13
-37.98
-40.86
-41.14
-39.27
-35.88
-31.73
-27.64
-24.2
-21.65
-19.93
-18.9
-18.61
-19.42
-21.69
-25.42
-29.9
-33.75
-35.4
-33.81
-28.91
-21.6
-13.36
-5.57
0.93
5.95
9.78
12.76
15.12
16.93
18.3
19.47
20.86
22.91
25.73
29.05
32.22
34.5
35.46
35.19
34.35
33.81
34.26
35.8
37.91
39.66
40.21
39.18
36.79
33.71
30.64
28.05
25.94
23.98
21.67
18.66
14.8
10.23
5.16
-0.13
-5.41
-10.45
-15.01
-18.96
-22.33
-25.34
-28.33
-31.47
-34.55
-36.91
-37.56
-35.61
-30.63
-22.85
-13.14
-2.72
7.27
15.99
22.97
28.18
31.89
34.67
37.25
40.36
44.53
49.82
55.81
61.72
66.72
70.29
72.43
73.66
74.73
76.34
78.83
82.1
85.67
88.84
90.91
91.38
90.11
87.32
83.61
79.78
76.57
74.49
73.57
73.34
72.97
71.51
68.18
62.63
54.99
45.76
35.62
25.12
14.52
3.8
-7.26
-18.85
-30.99
-43.47
-55.89
-67.72
-78.4
-87.43
-94.41
-99.1
-101.49
-101.75
-100.24
-97.39
-93.61
-89.23
-84.48
-79.53
-74.5
-69.5
-64.69
-60.19
-56.13
-52.59
-49.59
-47.02
-44.77
-42.72
-40.84
-39.2
-37.83
-36.66
-35.37
-33.46
-30.4
-25.87
-19.92
-12.98
-5.66
1.45
7.99
13.88
19.13
23.79
27.8
31.1
33.7
35.74
37.44
39.02
40.56
41.99
43.19
44.06
44.65
45.07
45.53
46.18
47.07
48.13
49.25
50.28
51.11
51.73
52.18
52.57
52.97
53.34
53.54
53.32
52.46
50.86
48.64
46.07
43.49
41.21
39.36
37.98
37.03
36.45
36.15
36.02
35.93
35.71
35.23
34.43
33.33
32.0
30.44
28.59
26.41
23.87
21.05
18.04
14.78
11.03
6.44
0.82
-5.71
-12.58
-19.01
-24.31
-28.18
-30.78
-32.55
-33.96
-35.22
-36.26
-36.94
-37.19
-37.19
-37.27
-37.76
-38.81
-40.29
-41.88
-43.16
-43.81
-43.7
-42.94
-41.77
-40.44
-39.11
-37.82
-36.49
-35.06
-33.57
-32.2
-31.17
-30.64
-30.6
-30.82
-30.95
-30.7
-29.94
-28.78
-27.52
-26.46
-25.8
-25.57
-25.66
-25.88
-26.07
-26.13
-26.1
-26.1
-26.32
-26.9
-27.87
-29.09
-30.32
-31.28
-31.86
-32.15
-32.49
-33.32
-35.11
-38.12
-42.34
-47.31
-52.04
-55.14
-55.05
-50.64
-41.68
-29.19
-15.12
-1.8
8.94
16.33
20.77
23.35
25.23
27.09
29.0
30.69
31.9
32.66
33.32
34.28
35.75
37.61
39.4
40.63
40.96
40.42
39.34
38.17
37.23
36.52
35.73
34.42
32.24
29.15
25.47
21.74
18.49
16.04
14.37
13.13
11.78
9.74
6.59
2.13
-3.51
-9.96
-16.73
-23.39
-29.7
-35.66
-41.54
-47.64
-54.16
-60.96
-67.65
-73.62
-78.36
-81.69
-83.88
-85.54
-87.46
-90.32
-94.5
-99.99
-106.25
-112.23
-116.45
-117.33
-113.67
-105.21
-92.93
-78.84
-65.25
-53.94
-45.57
-39.61
-34.91
-30.42
-25.73
-21.11
-17.2
-14.44
-12.77
-11.7
-10.47
-8.52
-5.62
-1.86
2.48
7.15
12.04
17.08
22.18
27.06
31.33
34.59
36.58
37.33
37.14
36.37
35.33
34.1
32.57
30.59
28.09
25.16
22.01
18.9
16.02
13.41
11.0
8.61
6.1
3.39
0.53
-2.39
-5.27
-8.08
-10.92
-13.97
-17.47
-21.57
-26.26
-31.29
-36.12
-40.02
-42.15
-41.86
-38.86
-33.35
-25.97
-17.6
-9.13
-1.16
6.05
12.53
18.45
23.92
28.85
32.97
35.86
37.19
36.83
34.94
31.95
28.41
24.85
21.61
18.8
16.33
14.07
11.93
9.91
8.14
6.79
5.96
5.71
6.01
6.81
7.96
9.29
10.55
11.45
11.76
11.41
10.52
9.37
8.26
7.44
6.96
6.75
6.61
6.39
5.92
5.09
3.84
2.16
0.06
-2.35
-4.99
-7.73
-10.56
-13.51
-16.7
-20.25
-24.14
-28.12
-31.61
-33.85
-34.04
-31.67
-26.75
-19.87
-12.05
-4.4
2.27
7.68
12.08
16.06
20.13
24.49
28.91
32.87
35.85
37.56
38.1
37.88
37.41
37.12
37.2
37.59
38.13
38.65
39.11
39.54
39.99
40.42
40.69
40.6
40.01
38.95
37.58
36.15
34.87
33.79
32.81
31.7
30.25
28.37
26.12
23.73
21.45
19.51
17.97
16.75
15.67
14.49
13.04
11.25
9.12
6.72
4.21
1.73
-0.58
-2.7
-4.7
-6.81
-9.26
-12.18
-15.48
-18.73
-21.34
-22.62
-22.06
-19.46
-15.02
-9.29
-3.01
3.08
8.43
12.77
16.15
18.79
20.95
22.81
24.45
25.8
26.79
27.36
27.56
27.56
27.55
27.7
28.08
28.65
29.3
29.88
30.3
30.51
30.47
30.14
29.47
28.49
27.24
25.86
24.47
23.13
21.88
20.65
19.42
18.18
16.95
15.75
14.6
13.47
12.33
11.15
9.89
8.49
6.92
5.15
3.23
1.27
-0.57
-2.19
-3.61
-4.92
-6.32
-7.95
-9.85
-11.96
-14.1
-16.09
-17.84
-19.4
-20.87
-22.45
-24.31
-26.57
-29.23
-32.13
-34.86
-36.86
-37.47
-36.16
-32.81
-27.76
-21.74
-15.63
-10.11
-5.51
-1.75
1.48
4.5
7.51
10.52
13.38
15.88
17.84
19.11
19.73
19.81
19.62
19.47
19.58
20.07
20.82
21.66
22.38
22.86
23.1
23.16
23.04
22.7
22.02
20.88
19.32
17.51
15.75
14.35
13.49
13.13
13.02
12.85
12.43
11.73
10.88
10.07
9.39
8.79
8.16
7.41
6.6
5.91
5.53
5.51
5.7
5.82
5.53
4.69
3.32
1.62
-0.18
-1.96
-3.65
-5.26
-6.78
-8.15
-9.34
-10.36
-11.32
-12.31
-13.4
-14.57
-15.71
-16.77
-17.8
-18.96
-20.46
-22.46
-24.96
-27.71
-30.28
-32.12
-32.69
-31.65
-28.93
-24.83
-19.96
-15.04
-10.69
-7.27
-4.76
-2.88
-1.23
0.55
2.61
4.88
7.12
9.07
10.47
11.23
11.4
11.16
10.75
10.42
10.32
10.51
10.95
11.52
12.06
12.45
12.6
12.47
12.11
11.6
11.04
10.51
10.04
9.62
9.21
8.74
8.17
7.5
6.77
6.01
5.27
4.57
3.9
3.26
2.63
2.02
1.44
0.93
0.5
0.15
-0.17
-0.51
-0.93
-1.46
-2.06
-2.67
-3.25
-3.79
-4.39
-5.15
-6.17
-7.43
-8.81
-10.16
-11.31
-12.23
-12.95
-13.56
-14.17
-14.83
-15.6
-16.55
-17.78
-19.41
-21.44
-23.65
-25.59
-26.7
-26.49
-24.74
-21.61
-17.63
-13.46
-9.68
-6.6
-4.2
-2.27
-0.5
1.3
3.18
5.01
6.62
7.9
8.79
9.37
9.73
9.93
10.01
9.98
9.87
9.74
9.72
9.87
10.2
10.65
11.07
11.3
11.22
10.78
10.01
9.06
8.07
7.24
6.66
6.36
6.24
6.13
5.88
5.41
4.74
3.94
3.12
2.38
1.78
1.35
1.09
0.98
0.94
0.86
0.64
0.21
-0.39
-1.06
-1.67
-2.17
-2.59
-3.04
-3.6
-4.31
-5.14
-5.99
-6.8
-7.57
-8.38
-9.32
-10.48
-11.85
-13.36
-14.88
-16.3
-17.54
-18.6
-19.55
-20.52
-21.7
-23.24
-25.17
-27.33
-29.33
-30.64
-30.76
-29.39
-26.59
-22.71
-18.35
-14.08
-10.32
-7.25
-4.84
-2.9
-1.21
0.42
2.09
3.79
5.46
6.97
8.19
9.08
9.64
9.96
10.13
10.25
10.39
10.62
10.98
11.48
12.06
12.62
12.99
13.05
12.71
12.01
11.08
10.1
9.26
8.65
8.29
8.06
7.81
7.42
6.84
6.14
5.42
4.79
4.28
3.9
3.57
3.25
2.88
2.41
1.81
1.04
0.14
-0.81
-1.66
-2.32
-2.79
-3.22
-3.79
-4.67
-5.9
-7.35
-8.86
-10.28
-11.59
-12.81
-14.02
-15.24
-16.42
-17.5
-18.47
-19.41
-20.42
-21.66
-23.26
-25.27
-27.6
-29.98
-31.97
-33.04
-32.73
-30.8
-27.38
-22.89
-18.0
-13.32
-9.32
-6.2
-3.9
-2.17
-0.67
0.89
2.7
4.74
6.87
8.84
10.41
11.46
12.01
12.2
12.22
12.23
12.36
12.67
13.15
13.78
14.46
15.08
15.49
15.56
15.21
14.5
13.58
12.68
12.03
11.74
11.74
11.86
11.82
11.39
10.52
9.31
8.0
6.87
6.1
5.69
5.53
5.4
5.08
4.42
3.35
1.91
0.24
-1.48
-3.04
-4.3
-5.23
-5.94
-6.62
-7.5
-8.69
-10.21
-11.96
-13.83
-15.75
-17.71
-19.73
-21.84
-24.05
-26.34
-28.68
-30.94
-32.86
-34.07
-34.1
-32.63
-29.59
-25.29
-20.32
-15.36
-10.93
-7.3
-4.41
-2.06
0.04
2.09
4.21
6.39
8.57
10.59
12.28
13.5
14.21
14.49
14.53
14.55
14.71
15.08
15.64
16.3
16.96
17.52
17.91
18.05
17.92
17.51
16.87
16.12
15.35
14.62
13.95
13.32
12.69
12.06
11.41
10.75
10.07
9.33
8.47
7.45
6.27
4.97
3.64
2.39
1.27
0.3
-0.57
-1.45
-2.41
-3.48
-4.64
-5.85
-7.06
-8.26
-9.46
-10.68
-11.98
-13.38
-14.92
-16.61
-18.44
-20.38
-22.39
-24.5
-26.75
-29.18
-31.68
-33.93
-35.44
-35.65
-34.21
-31.1
-26.68
-21.55
-16.38
-11.65
-7.58
-4.15
-1.19
1.51
4.1
6.67
9.18
11.54
13.56
15.08
16.01
16.38
16.38
16.25
16.26
16.55
17.13
17.94
18.83
19.66
20.3
20.63
20.57
20.09
19.26
18.2
17.1
16.1
15.3
14.66
14.12
13.55
12.87
12.03
11.02
9.94
8.88
7.96
7.24
6.71
6.23
5.61
4.7
3.47
2.01
0.44
-1.13
-2.67
-4.23
-5.83
-7.44
-8.96
-10.33
-11.5
-12.58
-13.68
-14.97
-16.52
-18.43
-20.72
-23.4
-26.36
-29.28
-31.6
-32.66
-31.93
-29.24
-24.87
-19.56
-14.14
-9.32
-5.4
-2.31
0.25
2.64
5.04
7.51
9.89
12.02
13.74
14.97
15.7
16.04
16.13
16.14
16.22
16.46
16.91
17.54
18.33
19.21
20.1
20.86
21.33
21.32
20.74
19.6
18.09
16.5
15.08
14.01
13.28
12.7
12.02
11.02
9.64
7.99
6.25
4.69
3.44
2.53
1.87
1.26
0.53
-0.45
-1.67
-3.04
-4.45
-5.83
-7.2
-8.67
-10.37
-12.31
-14.37
-16.37
-18.11
-19.53
-20.74
-21.97
-23.51
-25.52
-27.99
-30.7
-33.22
-35.04
-35.62
-34.57
-31.79
-27.49
-22.18
-16.56
-11.28
-6.81
-3.28
-0.53
1.79
4.02
6.38
8.83
11.16
13.11
14.5
15.32
15.71
15.86
15.92
15.96
16.03
16.19
16.58
17.29
18.35
19.57
20.62
21.18
21.04
20.21
18.89
17.38
15.97
14.85
14.09
13.64
13.41
13.24
13.01
12.61
12.04
11.32
10.53
9.71
8.86
7.92
6.84
5.61
4.28
2.91
1.57
0.27
-0.99
-2.27
-3.58
-5.0
-6.54
-8.23
-10.04
-11.91
-13.75
-15.46
-16.99
-18.37
-19.75
-21.33
-23.3
-25.79
-28.73
-31.81
-34.47
-36.06
-35.97
-33.89
-29.92
-24.58
-18.71
-13.17
-8.57
-5.12
-2.61
-0.56
1.5
3.85
6.46
9.06
11.33
13.04
14.16
14.81
15.17
15.42
15.65
15.9
16.15
16.38
16.6
16.83
17.11
17.44
17.75
17.92
17.81
17.3
16.42
15.32
14.25
13.42
12.88
12.55
12.18
11.61
10.76
9.76
8.78
7.97
7.34
6.75
6.06
5.16
4.09
2.94
1.85
0.86
-0.02
-0.91
-1.89
-3.02
-4.34
-5.81
-7.4
-9.08
-10.82
-12.6
-14.4
-16.22
-18.06
-19.94
-21.9
-23.92
-25.91
-27.61
-28.67
-28.68
-27.35
-24.61
-20.7
-16.03
-11.17
-6.62
-2.68
0.55
3.15
5.31
7.21
8.95
10.57
12.04
13.32
14.38
15.22
15.87
16.36
16.73
17.05
17.4
17.88
18.52
19.31
20.13
20.81
21.16
21.07
20.51
19.53
18.24
16.76
15.22
13.7
12.26
10.9
9.61
8.38
7.24
6.21
5.31
4.48
3.62
2.64
1.5
0.27
-0.92
-1.95
-2.79
-3.5
-4.17
-4.9
-5.68
-6.51
-7.4
-8.42
-9.65
-11.11
-12.72
-14.33
-15.78
-17.04
-18.18
-19.42
-20.98
-23.04
-25.63
-28.55
-31.39
-33.56
-34.46
-33.66
-31.1
-27.1
-22.28
-17.3
-12.66
-8.61
-5.18
-2.25
0.31
2.64
4.85
7.02
9.15
11.15
12.81
13.93
14.35
14.16
13.61
13.02
12.7
12.78
13.21
13.87
14.59
15.26
15.83
16.24
16.41
16.24
15.69
14.81
13.78
12.86
12.19
11.78
11.44
10.92
10.06
8.88
7.61
6.53
5.83
5.55
5.5
5.4
4.97
4.08
2.75
1.14
-0.51
-1.99
-3.16
-4.03
-4.76
-5.55
-6.59
-7.96
-9.6
-11.37
-13.09
-14.67
-16.08
-17.39
-18.72
-20.27
-22.18
-24.46
-26.96
-29.26
-30.82
-31.11
-29.81
-26.95
-22.9
-18.25
-13.58
-9.37
-5.81
-2.92
-0.56
1.48
3.44
5.45
7.58
9.73
11.66
13.09
13.81
13.83
13.33
12.65
12.11
11.93
12.11
12.56
13.13
13.71
14.21
14.61
14.85
14.85
14.55
13.89
12.88
11.6
10.15
8.67
7.31
6.21
5.44
5.03
4.88
4.8
4.59
4.12
3.37
2.45
1.53
0.71
0.05
-0.52
-1.06
-1.65
-2.31
-3.03
-3.81
-4.7
-5.77
-7.06
-8.54
-10.12
-11.66
-13.1
-14.47
-15.94
-17.68
-19.79
-22.1
-24.26
-25.72
-26.0
-24.81
-22.17
-18.44
-14.13
-9.8
-5.87
-2.56
0.16
2.41
4.36
6.14
7.78
9.21
10.3
10.93
11.12
10.99
10.74
10.58
10.66
10.98
11.49
12.1
12.75
13.41
14.07
14.64
15.0
15.03
14.66
13.93
12.98
11.97
11.02
10.16
9.33
8.48
7.6
6.76
6.02
5.44
5.02
4.66
4.25
3.71
2.99
2.06
0.98
-0.24
-1.53
-2.79
-3.92
-4.86
-5.62
-6.33
-7.19
-8.34
-9.83
-11.55
-13.32
-14.98
-16.46
-17.8
-19.14
-20.65
-22.46
-24.61
-26.98
-29.32
-31.21
-32.14
-31.71
-29.73
-26.33
-21.99
-17.31
-12.88
-9.04
-5.88
-3.23
-0.82
1.57
4.09
6.72
9.27
11.51
13.16
14.05
14.2
13.8
13.13
12.55
12.31
12.51
13.13
14.02
15.0
15.88
16.52
16.82
16.73
16.28
15.55
14.63
13.64
12.68
11.78
10.97
10.27
9.64
9.09
8.55
7.97
7.3
6.55
5.75
4.96
4.22
3.49
2.7
1.73
0.58
-0.67
-1.87
-2.89
-3.74
-4.53
-5.48
-6.74
-8.34
-10.13
-11.9
-13.45
-14.69
-15.7
-16.66
-17.83
-19.41
-21.51
-24.06
-26.8
-29.34
-31.17
-31.81
-30.96
-28.54
-24.74
-20.0
-14.9
-10.01
-5.73
-2.27
0.47
2.75
4.85
6.98
9.16
11.22
12.96
14.23
14.99
15.32
15.37
15.26
15.11
14.95
14.8
14.7
14.69
14.82
15.07
15.36
15.59
15.63
15.46
15.09
14.6
14.06
13.49
12.86
12.14
11.3
10.36
9.39
8.44
7.58
6.78
6.03
5.28
4.47
3.55
2.51
1.36
0.16
-0.97
-1.94
-2.71
-3.34
-3.98
-4.83
-6.06
-7.66
-9.47
-11.22
-12.63
-13.6
-14.28
-14.99
-16.08
-17.78
-19.96
-22.2
-23.81
-24.07
-22.47
-18.84
-13.49
-7.03
-0.22
6.25
11.97
16.86
21.17
25.3
29.7
34.7
40.45
46.78
53.22
59.05
63.49
65.91
65.99
63.81
59.78
54.43
48.29
41.7
34.88
27.9
20.94
14.24
8.18
3.11
-0.77
-3.47
-5.23
-6.4
-7.27
-7.96
-8.47
-8.74
-8.78
-8.73
-8.77
-9.03
-9.44
-9.83
-10.0
-9.86
-9.53
-9.2
-9.07
-9.17
-9.4
-9.6
-9.71
-9.82
-10.1
-10.78
-11.94
-13.51
-15.3
-17.05
-18.59
-19.91
-21.12
-22.42
-23.97
-25.71
-27.35
-28.38
-28.25
-26.56
-23.25
-18.66
-13.42
-8.29
-3.96
-0.91
0.7
0.95
0.14
-1.32
-3.08
-4.88
-6.65
-8.41
-10.25
-12.22
-14.24
-16.16
-17.77
-18.88
-19.39
-19.27
-18.63
-17.67
-16.64
-15.84
-15.48
-15.67
-16.37
-17.41
-18.62
-19.86
-21.12
-22.51
-24.12
-26.03
-28.17
-30.38
-32.44
-34.14
-35.36
-35.98
-35.95
-35.26
-33.96
-32.21
-30.26
-28.42
-26.96
-26.07
-25.8
-26.1
-26.87
-27.96
-29.21
-30.44
-31.48
-32.16
-32.32
-31.84
-30.65
-28.74
-26.3
-23.64
-21.17
-19.26
-18.08
-17.46
-16.98
-16.02
-14.12
-11.09
-7.11
-2.68
1.61
5.2
7.72
9.02
9.18
8.45
7.24
5.99
5.12
4.9
5.43
6.59
8.18
10.03
12.03
14.2
16.59
19.21
21.98
24.78
27.42
29.74
31.69
33.29
34.71
36.12
37.65
39.31
40.95
42.34
43.29
43.8
44.1
44.51
45.3
46.58
48.18
49.81
51.11
51.8
51.67
50.64
48.69
45.98
42.78
39.51
36.54
34.08
32.07
30.18
27.99
25.2
21.71
17.61
13.12
8.47
3.86
-0.57
-4.7
-8.51
-12.06
-15.43
-18.65
-21.65
-24.22
-26.12
-27.2
-27.48
-27.17
-26.53
-25.75
-24.86
-23.66
-21.79
-18.87
-14.6
-8.9
-1.99
5.73
13.79
21.83
29.63
37.08
43.99
50.07
54.91
58.19
59.8
59.93
58.98
57.34
55.33
53.08
50.69
48.22
45.79
43.54
41.6
40.06
38.94
38.25
37.91
37.77
37.65
37.31
36.64
35.66
34.49
33.35
32.42
31.77
31.34
30.91
30.13
28.64
26.12
22.42
17.58
11.76
5.11
-2.36
-10.74
-20.19
-30.75
-42.21
-54.12
-65.9
-76.94
-86.62
-94.29
-99.21
-100.71
-98.45
-92.77
-84.78
-76.06
-68.16
-62.04
-57.78
-54.72
-51.87
-48.45
-44.15
-39.12
-33.78
-28.49
-23.4
-18.47
-13.6
-8.83
-4.32
-0.34
2.96
5.6
7.84
9.99
12.25
14.54
16.55
17.9
18.36
18.0
17.13
16.14
15.33
14.8
14.45
14.12
13.76
13.39
13.18
13.25
13.66
14.31
14.99
15.5
15.67
15.52
15.18
14.89
14.82
15.09
15.66
16.49
17.45
18.47
19.5
20.53
21.57
22.58
23.54
24.37
25.04
25.54
25.89
26.14
26.31
26.38
26.24
25.86
25.27
24.61
24.03
23.55
22.99
21.99
20.25
17.68
14.55
11.33
8.5
6.23
4.39
2.65
0.75
-1.31
-3.23
-4.58
-5.06
-4.6
-3.38
-1.75
-0.12
1.13
1.67
1.29
-0.02
-1.97
-4.05
-5.65
-6.34
-6.15
-5.55
-5.32
-6.13
-8.2
-11.24
-14.53
-17.32
-19.18
-20.21
-20.91
-21.96
-23.85
-26.66
-30.04
-33.38
-36.08
-37.82
-38.68
-39.05
-39.52
-40.62
-42.78
-46.25
-51.04
-56.68
-62.08
-65.47
-64.81
-58.62
-46.69
-30.46
-12.71
3.5
15.93
23.84
28.0
29.94
31.06
32.1
33.09
33.77
34.01
33.96
33.9
33.89
33.7
32.84
30.84
27.51
23.12
18.24
13.58
9.7
6.88
5.01
3.78
2.75
1.54
-0.06
-2.07
-4.41
-6.89
-9.38
-11.79
-14.09
-16.24
-18.15
-19.68
-20.78
-21.47
-21.92
-22.38
-23.02
-23.87
-24.76
-25.42
-25.64
-25.32
-24.6
-23.79
-23.22
-23.16
-23.67
-24.63
-25.76
-26.74
-27.39
-27.7
-27.89
-28.37
-29.55
-31.77
-35.18
-39.62
-44.55
-48.97
-51.57
-51.02
-46.5
-38.09
-26.92
-14.92
-4.14
3.92
8.72
10.7
10.85
10.27
9.66
9.3
9.09
8.78
8.13
7.01
5.35
3.13
0.42
-2.67
-5.94
-9.1
-11.86
-13.91
-15.18
-15.78
-16.11
-16.72
-18.06
-20.27
-23.11
-25.97
-28.15
-29.17
-28.94
-27.79
-26.35
-25.22
-24.8
-25.11
-25.91
-26.72
-27.03
-26.35
-24.35
-20.94
-16.3
-10.85
-5.1
0.51
5.76
10.61
15.08
19.15
22.61
25.22
26.79
27.35
27.1
26.35
25.32
24.11
22.74
21.23
19.7
18.41
17.59
17.35
17.59
18.08
18.65
19.33
20.32
21.89
24.12
26.76
29.32
31.27
32.26
32.24
31.48
30.31
29.04
27.81
26.68
25.62
24.6
23.6
22.56
21.38
19.94
18.13
15.85
13.08
9.86
6.32
2.66
-0.91
-4.24
-7.3
-10.18
-13.01
-15.83
-18.57
-21.07
-23.14
-24.71
-25.85
-26.77
-27.77
-29.06
-30.71
-32.61
-34.56
-36.34
-37.85
-39.18
-40.63
-42.63
-45.61
-49.73
-54.7
-59.73
-63.65
-65.2
-63.49
-58.31
-50.27
-40.58
-30.71
-21.87
-14.75
-9.41
-5.44
-2.27
0.6
3.42
6.19
8.76
10.96
12.65
13.86
14.69
15.29
15.86
16.58
17.59
18.9
20.47
22.11
23.64
24.86
25.65
25.95
25.72
24.96
23.69
22.02
20.15
18.36
16.9
15.88
15.22
14.65
13.9
12.79
11.34
9.74
8.22
6.91
5.78
4.64
3.22
1.3
-1.18
-4.14
-7.38
-10.63
-13.69
-16.45
-18.93
-21.19
-23.37
-25.62
-28.11
-30.95
-34.19
-37.69
-41.07
-43.74
-45.03
-44.33
-41.37
-36.29
-29.66
-22.3
-15.03
-8.44
-2.76
2.12
6.54
10.88
15.34
19.92
24.38
28.4
31.7
34.17
35.87
36.95
37.58
37.91
38.06
38.16
38.37
38.82
39.53
40.37
41.08
41.42
41.25
40.59
39.64
38.62
37.69
36.97
36.48
36.16
35.95
35.67
35.16
34.21
32.74
30.77
28.43
25.91
23.33
20.74
18.16
15.61
13.15
10.88
8.83
6.97
5.16
3.23
1.04
-1.44
-4.15
-6.95
-9.69
-12.28
-14.7
-17.04
-19.45
-22.17
-25.42
-29.31
-33.75
-38.3
-42.26
-44.8
-45.25
-43.32
-39.22
-33.58
-27.28
-21.13
-15.71
-11.22
-7.51
-4.23
-0.99
2.45
6.07
9.61
12.68
14.88
16.02
16.2
15.71
14.99
14.37
14.06
14.14
14.63
15.48
16.62
17.9
19.13
20.15
20.85
21.27
21.54
21.84
22.27
22.83
23.42
23.9
24.17
24.21
24.03
23.65
23.05
22.22
21.18
20.03
18.88
17.85
17.02
16.38
15.9
15.51
15.17
14.85
14.48
13.95
13.13
11.88
10.15
7.98
5.48
2.78
-0.09
-3.17
-6.55
-10.31
-14.47
-18.92
-23.37
-27.44
-30.67
-32.61
-32.94
-31.59
-28.76
-24.94
-20.72
-16.62
-12.92
-9.62
-6.54
-3.42
-0.13
3.27
6.59
9.57
12.03
13.83
14.95
15.43
15.35
14.9
14.3
13.87
13.85
14.36
15.36
16.58
17.7
18.36
18.38
17.77
16.73
15.52
14.41
13.56
13.0
12.66
12.41
12.12
11.67
11.03
10.16
9.12
7.99
6.88
5.95
5.31
5.0
4.97
5.08
5.12
4.93
4.44
3.72
2.96
2.36
2.05
1.97
1.95
1.75
1.2
0.29
-0.91
-2.21
-3.49
-4.65
-5.69
-6.62
-7.42
-8.13
-8.75
-9.36
-10.02
-10.8
-11.7
-12.68
-13.7
-14.75
-15.93
-17.39
-19.3
-21.71
-24.44
-27.05
-28.9
-29.4
-28.16
-25.19
-20.88
-15.9
-10.93
-6.5
-2.86
-0.01
2.22
4.1
5.89
7.75
9.73
11.73
13.56
14.96
15.8
16.03
15.81
15.37
14.97
14.83
15.01
15.52
16.25
17.08
17.9
18.53
18.84
18.66
17.95
16.74
15.23
13.71
12.48
11.69
11.34
11.24
11.14
10.86
10.37
9.78
9.27
8.93
8.76
8.61
8.32
7.78
7.02
6.12
5.2
4.35
3.56
2.82
2.13
1.55
1.11
0.8
0.52
0.15
-0.45
-1.32
-2.4
-3.55
-4.66
-5.69
-6.68
-7.7
-8.79
-9.91
-11.01
-12.01
-12.89
-13.67
-14.4
-15.17
-16.05
-17.11
-18.33
-19.66
-20.9
-21.73
-21.84
-20.96
-19.06
-16.33
-13.14
-9.87
-6.85
-4.19
-1.87
0.2
2.12
3.96
5.76
7.49
9.09
10.39
11.24
11.5
11.19
10.46
9.62
8.99
8.76
8.96
9.44
10.0
10.49
10.82
10.99
10.99
10.78
10.32
9.59
8.7
7.81
7.12
6.72
6.58
6.51
6.3
5.83
5.14
4.4
3.76
3.34
3.11
2.96
2.76
2.43
1.93
1.3
0.56
-0.23
-0.99
-1.64
-2.1
-2.38
-2.57
-2.86
-3.41
-4.3
-5.45
-6.64
-7.64
-8.29
-8.59
-8.71
-8.9
-9.35
-10.16
-11.25
-12.49
-13.73
-14.91
-16.05
-17.23
-18.57
-20.13
-21.9
-23.76
-25.49
-26.8
-27.36
-26.89
-25.28
-22.59
-19.1
-15.24
-11.45
-8.1
-5.35
-3.23
-1.56
-0.12
1.32
2.9
4.64
6.42
8.07
9.41
10.3
10.76
10.88
10.84
10.81
10.9
11.15
11.53
11.95
12.31
12.5
12.48
12.26
11.87
11.36
10.81
10.25
9.68
9.05
8.34
7.54
6.73
5.99
5.39
4.96
4.66
4.43
4.24
4.1
4.02
3.99
3.96
3.85
3.56
3.04
2.29
1.38
0.38
-0.66
-1.7
-2.7
-3.66
-4.54
-5.34
-6.09
-6.85
-7.73
-8.83
-10.2
-11.74
-13.27
-14.57
-15.51
-16.1
-16.56
-17.12
-18.02
-19.34
-21.01
-22.86
-24.63
-26.05
-26.85
-26.77
-25.64
-23.42
-20.28
-16.61
-12.88
-9.54
-6.83
-4.75
-3.07
-1.48
0.3
2.38
4.66
6.91
8.85
10.28
11.13
11.45
11.43
11.26
11.14
11.2
11.48
11.94
12.49
13.07
13.58
13.98
14.22
14.23
13.93
13.3
12.41
11.43
10.56
9.95
9.65
9.49
9.24
8.69
7.77
6.58
5.32
4.22
3.37
2.78
2.34
1.9
1.41
0.83
0.23
-0.36
-0.91
-1.47
-2.11
-2.92
-3.96
-5.2
-6.56
-7.92
-9.24
-10.49
-11.76
-13.11
-14.61
-16.28
-18.1
-20.06
-22.12
-24.14
-25.84
-26.8
-26.62
-25.07
-22.2
-18.36
-14.11
-9.97
-6.3
-3.23
-0.66
1.54
3.54
5.37
7.0
8.34
9.32
9.92
10.22
10.35
10.47
10.67
11.0
11.43
11.91
12.42
12.98
13.59
14.23
14.79
15.15
15.16
14.79
14.1
13.21
12.26
11.38
10.64
10.05
9.57
9.14
8.68
8.14
7.47
6.71
5.87
5.04
4.24
3.49
2.78
2.06
1.3
0.43
-0.54
-1.61
-2.73
-3.84
-4.91
-5.98
-7.09
-8.27
-9.49
-10.68
-11.76
-12.75
-13.77
-15.01
-16.61
-18.61
-20.9
-23.3
-25.62
-27.63
-29.12
-29.77
-29.28
-27.42
-24.17
-19.86
-15.03
-10.33
-6.29
-3.12
-0.76
1.07
2.68
4.34
6.12
7.98
9.79
11.37
12.57
13.34
13.71
13.81
13.85
13.97
14.28
14.77
15.4
16.06
16.7
17.21
17.53
17.52
17.12
16.27
15.06
13.66
12.32
11.22
10.44
9.95
9.58
9.15
8.55
7.76
6.87
6.02
5.34
4.85
4.48
4.1
3.58
2.85
1.96
1.0
0.11
-0.69
-1.4
-2.16
-3.09
-4.32
-5.89
-7.71
-9.63
-11.44
-12.95
-14.08
-14.88
-15.53
-16.31
-17.46
-19.13
-21.27
-23.66
-25.88
-27.44
-27.87
-26.85
-24.37
-20.67
-16.25
-11.68
-7.42
-3.75
-0.71
1.82
3.99
5.88
7.52
8.92
10.07
10.99
11.68
12.17
12.46
12.57
12.59
12.63
12.82
13.21
13.79
14.48
15.19
15.79
16.19
16.33
16.15
15.67
14.93
14.06
13.18
12.35
11.59
10.87
10.15
9.44
8.75
8.09
7.45
6.78
6.03
5.15
4.13
2.97
1.72
0.44
-0.78
-1.86
-2.8
-3.66
-4.57
-5.68
-7.02
-8.53
-10.04
-11.4
-12.54
-13.57
-14.63
-15.93
-17.55
-19.49
-21.59
-23.58
-25.11
-25.76
-25.17
-23.14
-19.72
-15.26
-10.34
-5.61
-1.62
1.4
3.49
4.91
5.97
6.91
7.84
8.75
9.55
10.17
10.55
10.7
10.66
10.55
10.5
10.65
11.09
11.81
12.69
13.58
14.29
14.72
14.83
14.64
14.19
13.56
12.78
11.91
10.98
10.07
9.2
8.38
7.6
6.82
5.99
5.1
4.17
3.27
2.48
1.82
1.26
0.74
0.18
-0.47
-1.19
-1.93
-2.65
-3.39
-4.24
-5.32
-6.68
-8.27
-9.95
-11.55
-12.95
-14.08
-15.02
-15.86
-16.76
-17.86
-19.28
-21.07
-23.14
-25.24
-26.92
-27.66
-27.05
-24.93
-21.53
-17.36
-13.05
-9.1
-5.79
-3.1
-0.84
1.21
3.22
5.24
7.22
9.08
10.69
11.91
12.65
12.87
12.65
12.18
11.7
11.45
11.57
12.08
12.87
13.76
14.51
14.95
15.02
14.74
14.2
13.51
12.74
11.92
11.08
10.25
9.44
8.71
8.04
7.41
6.76
6.06
5.29
4.5
3.75
3.03
2.28
1.38
0.26
-1.12
-2.69
-4.3
-5.77
-6.96
-7.81
-8.35
-8.72
-9.1
-9.67
-10.57
-11.86
-13.51
-15.42
-17.31
-18.88
-19.73
-19.55
-18.14
-15.54
-12.06
-8.15
-4.35
-1.09
1.45
3.29
4.65
5.8
6.93
8.1
9.25
10.23
10.95
11.37
11.56
11.64
11.73
11.89
12.11
12.33
12.5
12.6
12.71
12.9
13.19
13.53
13.78
13.8
13.49
12.84
11.87
10.69
9.41
8.16
7.07
6.23
5.63
5.19
4.74
4.14
3.33
2.36
1.36
0.4
-0.52
-1.51
-2.69
-4.1
-5.64
-7.13
-8.4
-9.38
-10.15
-10.88
-11.72
-12.74
-13.96
-15.35
-16.9
-18.56
-20.21
-21.55
-22.23
-21.92
-20.46
-17.95
-14.72
-11.17
-7.66
-4.38
-1.45
1.1
3.26
5.03
6.47
7.64
8.65
9.56
10.37
11.0
11.39
11.51
11.41
11.24
11.15
11.25
11.59
12.09
12.67
13.22
13.62
13.83
13.8
13.5
12.94
12.13
11.18
10.2
9.33
8.67
8.21
7.9
7.62
7.23
6.67
5.94
5.12
4.26
3.42
2.6
1.79
1.0
0.26
-0.39
-0.96
-1.5
-2.12
-2.88
-3.83
-4.9
-6.01
-7.07
-8.05
-8.95
-9.82
-10.71
-11.65
-12.66
-13.78
-15.05
-16.48
-18.07
-19.72
-21.24
-22.36
-22.76
-22.2
-20.58
-18.01
-14.79
-11.34
-8.07
-5.27
-3.0
-1.18
0.42
2.03
3.77
5.64
7.51
9.2
10.55
11.45
11.86
11.82
11.45
10.96
10.58
10.55
10.98
11.87
13.01
14.15
15.0
15.39
15.27
14.74
13.96
13.13
12.43
11.96
11.75
11.75
11.86
11.97
12.02
11.97
11.91
11.91
12.07
12.43
12.95
13.51
13.93
14.09
13.94
13.51
12.95
12.38
11.91
11.58
11.39
11.31
11.24
11.09
10.68
9.92
8.75
7.24
5.54
3.73
1.75
-0.59
-3.52
-7.16
-11.27
-15.32
-18.56
-20.31
-20.22
-18.38
-15.32
-11.76
-8.36
-5.57
-3.53
-2.14
-1.21
-0.55
-0.07
0.25
0.36
0.23
-0.18
-0.86
-1.74
-2.67
-3.48
-4.0
-4.15
-4.04
-3.89
-3.98
-4.46
-5.34
-6.48
-7.71
-8.9
-10.04
-11.16
-12.24
-13.14
-13.62
-13.52
-12.83
-11.82
-10.85
-10.28
-10.2
-10.46
-10.73
-10.68
-10.15
-9.19
-8.02
-6.9
-6.02
-5.42
-5.06
-4.85
-4.75
-4.8
-5.1
-5.76
-6.84
-8.3
-10.03
-11.86
-13.65
-15.27
-16.63
-17.73
-18.58
-19.34
-20.17
-21.21
-22.45
-23.64
-24.29
-23.87
-22.05
-18.84
-14.68
-10.19
-6.02
-2.56
0.09
2.09
3.71
5.18
6.66
8.17
9.65
11.02
12.15
12.99
13.51
13.74
13.75
13.63
13.44
13.24
13.08
12.99
12.98
13.04
13.08
13.03
12.77
12.2
11.35
10.3
9.22
8.24
7.48
6.9
6.43
5.96
5.39
4.7
3.93
3.1
2.24
1.34
0.43
-0.48
-1.32
-2.05
-2.64
-3.13
-3.59
-4.09
-4.62
-5.18
-5.73
-6.31
-6.99
-7.84
-8.86
-9.97
-11.01
-11.83
-12.41
-12.85
-13.32
-14.04
-15.12
-16.59
-18.42
-20.45
-22.48
-24.19
-25.14
-24.95
-23.36
-20.4
-16.44
-12.01
-7.72
-4.01
-1.09
1.12
2.79
4.17
5.43
6.65
7.84
8.93
9.86
10.58
11.04
11.24
11.22
11.07
10.87
10.77
10.83
11.07
11.43
11.79
12.04
12.09
11.95
11.7
11.43
11.22
11.12
11.06
10.99
10.84
10.62
10.38
10.18
10.05
9.95
9.85
9.74
9.65
9.63
9.64
9.62
9.41
8.89
8.01
6.88
5.66
4.55
3.64
2.92
2.32
1.75
1.2
0.71
0.34
0.07
-0.25
-0.85
-1.97
-3.79
-6.32
-9.37
-12.55
-15.38
-17.36
-18.11
-17.44
-15.43
-12.35
-8.68
-4.91
-1.5
1.26
3.26
4.57
5.34
5.82
6.21
6.67
7.27
7.98
8.7
9.33
9.76
9.94
9.92
9.81
9.75
9.88
10.24
10.77
11.31
11.66
11.61
11.05
9.95
8.4
6.59
4.77
3.19
2.0
1.2
0.65
0.14
-0.55
-1.52
-2.74
-4.09
-5.43
-6.68
-7.84
-8.95
-10.04
-11.14
-12.23
-13.22
-14.04
-14.63
-15.02
-15.32
-15.68
-16.3
-17.29
-18.63
-20.23
-21.88
-23.42
-24.82
-26.17
-27.69
-29.62
-32.1
-35.06
-38.2
-41.03
-42.96
-43.47
-42.24
-39.28
-34.93
-29.82
-24.68
-20.19
-16.84
-14.84
-14.07
-14.15
-14.52
-14.57
-13.83
-12.11
-9.52
-6.39
-3.13
0.06
3.24
6.73
10.89
15.96
21.89
28.28
34.48
39.66
43.0
43.73
41.41
35.98
27.96
18.33
8.37
-0.69
-7.94
-13.01
-15.95
-17.08
-16.68
-14.77
-11.16
-5.57
2.07
11.4
21.49
31.03
38.69
43.5
45.27
44.63
42.91
41.58
41.77
43.77
46.97
50.11
51.79
51.0
47.38
41.17
32.92
23.17
12.31
0.57
-11.78
-24.31
-36.4
-47.31
-56.28
-62.64
-65.89
-65.68
-61.9
-54.74
-44.7
-32.61
-19.53
-6.67
4.77
13.79
19.77
22.6
22.72
20.94
18.18
15.2
12.43
9.99
7.9
6.26
5.34
5.49
6.99
9.85
13.82
18.46
23.27
27.9
32.08
35.62
38.31
39.94
40.37
39.63
37.93
35.53
32.66
29.36
25.55
21.21
16.49
11.73
7.31
3.53
0.4
-2.31
-4.93
-7.67
-10.57
-13.48
-16.23
-18.72
-20.92
-22.86
-24.54
-25.94
-27.01
-27.78
-28.34
-28.86
-29.53
-30.44
-31.55
-32.64
-33.3
-33.01
-31.24
-27.64
-22.22
-15.43
-8.05
-1.02
4.95
9.51
12.77
15.15
17.11
18.93
20.66
22.16
23.24
23.78
23.75
23.24
22.35
21.16
19.73
18.12
16.4
14.71
13.23
12.08
11.27
10.77
10.45
10.24
10.17
10.33
10.82
11.61
12.47
13.06
13.06
12.33
10.96
9.28
7.64
6.35
5.61
5.5
6.02
7.14
8.75
10.64
12.53
14.18
15.58
16.92
18.63
21.08
24.43
28.48
32.73
36.65
39.87
42.42
44.61
46.92
49.66
52.83
56.08
58.84
60.54
60.72
59.15
55.84
51.04
45.19
38.87
32.69
27.02
21.94
17.14
12.08
6.3
-0.19
-6.75
-12.14
-14.94
-14.21
-10.01
-3.53
3.22
8.22
10.15
8.78
4.79
-0.8
-7.17
-13.95
-21.12
-28.56
-35.89
-42.49
-47.83
-51.84
-54.94
-57.86
-61.25
-65.33
-69.89
-74.43
-78.46
-81.8
-84.67
-87.56
-91.0
-95.36
-100.59
-106.28
-111.75
-116.34
-119.59
-121.41
-122.18
-122.65
-123.84
-126.77
-131.94
-138.76
-145.13
-147.72
-142.91
-128.15
-103.18
-70.21
-33.2
3.51
36.53
64.0
85.43
101.02
111.03
115.69
115.31
110.58
102.47
91.99
79.82
66.19
51.08
34.65
17.45
0.53
-14.7
-26.86
-34.93
-38.52
-37.98
-34.16
-28.1
-20.67
-12.29
-3.04
7.12
17.99
28.88
38.67
46.05
50.0
50.05
46.45
40.02
31.85
23.05
14.5
6.87
0.53
-4.3
-7.63
-9.67
-10.75
-11.35
-11.94
-12.9
-14.39
-16.38
-18.57
-20.53
-21.77
-21.9
-20.77
-18.47
-15.34
-11.77
-8.15
-4.73
-1.68
0.94
3.08
4.7
5.8
6.43
6.68
6.67
6.52
6.31
6.1
5.92
5.84
5.91
6.2
6.72
7.44
8.3
9.2
10.0
10.6
10.85
10.61
9.8
8.43
6.61
4.57
2.57
0.83
-0.53
-1.58
-2.47
-3.45
-4.7
-6.3
-8.2
-10.2
-12.09
-13.72
-15.02
-16.08
-17.06
-18.18
-19.64
-21.55
-23.87
-26.46
-28.96
-30.91
-31.83
-31.34
-29.28
-25.81
-21.32
-16.37
-11.42
-6.79
-2.55
1.35
4.98
8.31
11.15
13.26
14.47
14.82
14.54
13.98
13.52
13.4
13.74
14.5
15.55
16.71
17.78
18.56
18.88
18.68
18.0
16.99
15.84
14.72
13.7
12.75
11.79
10.74
9.58
8.33
7.05
5.82
4.68
3.6
2.49
1.26
-0.17
-1.78
-3.43
-4.96
-6.27
-7.36
-8.39
-9.61
-11.29
-13.56
-16.34
-19.39
-22.26
-24.47
-25.59
-25.33
-23.6
-20.54
-16.51
-11.99
-7.44
-3.21
0.59
4.04
7.32
10.58
13.81
16.85
19.38
21.13
21.97
21.98
21.43
20.69
20.14
19.98
20.27
20.92
21.74
22.55
23.21
23.64
23.78
23.61
23.14
22.39
21.44
20.4
19.37
18.41
17.51
16.59
15.55
14.3
12.81
11.13
9.37
7.64
6.05
4.62
3.28
1.96
0.58
-0.87
-2.33
-3.74
-5.06
-6.34
-7.68
-9.23
-11.06
-13.19
-15.46
-17.62
-19.36
-20.29
-20.12
-18.73
-16.17
-12.75
-8.87
-4.94
-1.25
2.06
5.0
7.66
10.18
12.58
14.87
16.91
18.56
19.68
20.25
20.36
20.24
20.17
20.33
20.78
21.42
22.07
22.57
22.89
23.05
23.1
23.04
22.79
22.22
21.29
20.07
18.76
17.59
16.69
16.1
15.72
15.39
15.02
14.51
13.9
13.23
12.6
12.1
11.78
11.63
11.57
11.44
11.13
10.58
9.78
8.83
7.78
6.7
5.6
4.54
3.57
2.74
2.1
1.59
1.09
0.45
-0.4
-1.46
-2.6
-3.64
-4.47
-5.06
-5.51
-5.96
-6.54
-7.3
-8.22
-9.24
-10.3
-11.4
-12.56
-13.81
-15.16
-16.58
-18.03
-19.42
-20.61
-21.38
-21.45
-20.6
-18.71
-15.89
-12.46
-8.89
-5.64
-3.0
-1.06
0.36
1.55
2.81
4.31
6.02
7.77
9.35
10.56
11.35
11.77
11.93
11.95
11.92
11.85
11.78
11.76
11.86
12.13
12.52
12.88
13.03
12.8
12.18
11.31
10.44
9.79
9.5
9.53
9.72
9.86
9.81
9.53
9.07
8.54
8.01
7.51
6.97
6.31
5.46
4.46
3.4
2.41
1.6
1.01
0.62
0.4
0.35
0.43
0.61
0.78
0.81
0.56
0.03
-0.72
-1.52
-2.27
-2.89
-3.45
-4.02
-4.64
-5.29
-5.88
-6.34
-6.66
-6.91
-7.23
-7.72
-8.5
-9.58
-10.88
-12.22
-13.32
-13.86
-13.63
-12.52
-10.68
-8.4
-6.04
-3.92
-2.21
-0.92
0.05
0.87
1.7
2.6
3.59
4.59
5.53
6.36
7.05
7.59
7.95
8.07
7.86
7.33
6.58
5.81
5.25
5.02
5.12
5.37
5.55
5.49
5.16
4.66
4.09
3.58
3.14
2.73
2.33
1.9
1.43
0.95
0.46
-0.01
-0.4
-0.62
-0.61
-0.36
0.01
0.31
0.34
0.02
-0.57
-1.22
-1.71
-1.89
-1.82
-1.67
-1.66
-1.93
-2.49
-3.21
-3.92
-4.48
-4.85
-5.09
-5.3
-5.59
-5.97
-6.42
-6.86
-7.24
-7.54
-7.8
-8.1
-8.5
-9.02
-9.67
-10.43
-11.33
-12.39
-13.67
-15.16
-16.72
-18.11
-19.02
-19.15
-18.37
-16.69
-14.33
-11.6
-8.87
-6.43
-4.48
-3.06
-2.08
-1.32
-0.58
0.31
1.35
2.44
3.4
4.08
4.44
4.53
4.44
4.28
4.12
3.99
3.92
3.96
4.16
4.54
5.07
5.63
6.05
6.17
5.94
5.41
4.75
4.14
3.73
3.53
3.46
3.41
3.33
3.22
3.18
3.22
3.34
3.44
3.44
3.3
3.06
2.77
2.47
2.16
1.79
1.38
0.96
0.59
0.31
0.07
-0.25
-0.75
-1.45
-2.27
-3.07
-3.72
-4.18
-4.55
-4.99
-5.63
-6.5
-7.51
-8.55
-9.52
-10.38
-11.18
-11.97
-12.8
-13.7
-14.72
-15.87
-17.12
-18.36
-19.34
-19.77
-19.36
-17.97
-15.67
-12.73
-9.55
-6.54
-4.03
-2.16
-0.95
-0.22
0.26
0.7
1.27
2.0
2.83
3.65
4.33
4.8
5.07
5.25
5.44
5.76
6.21
6.71
7.18
7.53
7.76
7.9
7.99
8.01
7.9
7.56
7.0
6.3
5.64
5.16
4.89
4.77
4.63
4.37
3.96
3.51
3.14
2.9
2.76
2.59
2.24
1.64
0.85
-0.0
-0.78
-1.45
-2.1
-2.87
-3.89
-5.13
-6.47
-7.68
-8.64
-9.33
-9.89
-10.54
-11.38
-12.42
-13.52
-14.5
-15.27
-15.87
-16.46
-17.27
-18.48
-20.18
-22.35
-24.8
-27.22
-29.19
-30.24
-29.99
-28.3
-25.38
-21.69
-17.83
-14.3
-11.38
-9.05
-7.12
-5.33
-3.48
-1.46
0.77
3.13
5.51
7.68
9.43
10.62
11.24
11.45
11.48
11.56
11.81
12.24
12.79
13.39
14.01
14.61
15.16
15.56
15.74
15.65
15.28
14.71
14.05
13.4
12.82
12.35
11.99
11.71
11.42
11.02
10.42
9.62
8.7
7.81
7.13
6.73
6.57
6.5
6.3
5.78
4.85
3.55
2.01
0.39
-1.15
-2.54
-3.77
-4.89
-5.97
-7.07
-8.24
-9.5
-10.84
-12.27
-13.79
-15.38
-17.0
-18.62
-20.28
-22.09
-24.21
-26.68
-29.36
-31.85
-33.53
-33.83
-32.4
-29.23
-24.71
-19.43
-14.0
-8.88
-4.31
-0.24
3.49
7.12
10.8
14.52
18.16
21.49
24.31
26.49
28.07
29.2
30.08
30.92
31.89
33.07
34.46
35.92
37.23
38.08
38.29
37.9
37.22
36.79
37.05
38.16
39.71
40.72
39.89
36.07
28.82
18.77
7.7
-2.05
-8.26
-9.66
-6.38
-0.02
6.87
11.48
11.51
5.81
-5.42
-20.69
-37.62
-53.54
-66.21
-74.26
-77.51
-76.83
-73.65
-69.47
-65.47
-62.23
-59.86
-58.04
-56.15
-53.43
-49.06
-42.4
-33.39
-22.73
-11.95
-3.01
2.44
3.79
1.7
-2.08
-5.44
-6.65
-4.87
-0.22
6.5
14.16
21.61
27.82
31.97
33.53
32.43
29.09
24.35
19.14
14.21
9.92
6.34
3.43
1.37
0.7
2.15
6.37
13.53
23.01
33.38
42.64
48.79
50.44
47.31
40.32
31.28
22.3
15.02
10.22
7.74
6.76
6.33
5.74
4.64
2.98
0.85
-1.59
-4.03
-5.93
-6.62
-5.47
-2.22
2.81
8.69
14.22
18.34
20.5
20.88
20.21
19.38
19.05
19.4
20.19
20.98
21.46
21.65
21.84
22.41
23.61
25.38
27.51
29.71
31.84
33.86
35.83
37.69
39.29
40.42
40.89
40.62
39.62
37.87
35.19
31.26
25.76
18.55
9.83
0.11
-9.91
-19.59
-28.5
-36.44
-43.41
-49.53
-54.9
-59.6
-63.66
-67.06
-69.71
-71.43
-71.94
-71.02
-68.54
-64.64
-59.66
-54.03
-48.07
-41.94
-35.64
-29.17
-22.69
-16.53
-11.17
-7.0
-4.16
-2.49
-1.59
-0.96
-0.12
1.33
3.63
6.88
11.0
15.68
20.51
25.09
29.22
32.91
36.31
39.52
42.41
44.65
45.87
45.88
44.84
43.18
41.39
39.77
38.3
36.73
34.79
32.39
29.7
27.0
24.54
22.32
20.21
18.0
15.62
13.19
10.97
9.26
8.22
7.88
8.08
8.6
9.15
9.47
9.3
8.47
6.89
4.61
1.87
-0.99
-3.59
-5.65
-7.08
-7.98
-8.67
-9.47
-10.65
-12.28
-14.32
-16.65
-19.24
-22.14
-25.45
-29.18
-33.17
-37.03
-40.34
-42.79
-44.35
-45.35
-46.33
-47.92
-50.65
-54.71
-59.89
-65.42
-69.99
-72.05
-70.16
-63.54
-52.46
-38.29
-23.1
-9.03
2.33
10.34
15.26
17.91
19.23
19.94
20.46
20.96
21.52
22.17
22.94
23.79
24.61
25.19
25.3
24.83
23.88
22.75
21.91
21.72
22.3
23.41
24.56
25.19
24.88
23.48
21.17
18.25
15.03
11.74
8.49
5.31
2.27
-0.51
-2.86
-4.55
-5.47
-5.6
-5.15
-4.44
-3.9
-3.88
-4.57
-5.93
-7.7
-9.56
-11.17
-12.39
-13.21
-13.79
-14.39
-15.28
-16.7
-18.74
-21.2
-23.57
-25.06
-24.79
-22.18
-17.16
-10.33
-2.77
4.3
9.89
13.55
15.36
15.79
15.43
14.82
14.28
13.98
13.91
13.95
13.98
13.9
13.7
13.48
13.38
13.55
14.09
15.01
16.29
17.86
19.62
21.44
23.11
24.42
25.21
25.42
25.19
24.73
24.23
23.7
22.92
21.57
19.35
16.19
12.23
7.78
3.21
-1.23
-5.43
-9.4
-13.15
-16.7
-19.99
-22.99
-25.76
-28.4
-31.14
-34.21
-37.84
-42.11
-46.81
-51.3
-54.53
-55.33
-52.73
-46.47
-37.19
-26.29
-15.52
-6.35
0.42
4.84
7.5
9.21
10.56
11.86
13.15
14.33
15.35
16.16
16.75
17.09
17.12
16.83
16.29
15.56
14.76
13.96
13.14
12.28
11.34
10.25
8.98
7.49
5.8
4.01
2.32
0.97
0.08
-0.37
-0.57
-0.79
-1.27
-2.06
-3.11
-4.28
-5.43
-6.53
-7.63
-8.82
-10.18
-11.76
-13.53
-15.41
-17.25
-18.91
-20.22
-21.18
-21.89
-22.61
-23.74
-25.61
-28.4
-31.99
-35.85
-39.1
-40.79
-40.11
-36.81
-31.24
-24.29
-17.09
-10.56
-5.2
-0.98
2.51
5.76
9.1
12.59
16.0
18.95
21.11
22.26
22.42
21.81
20.74
19.5
18.29
17.19
16.19
15.28
14.46
13.74
13.01
12.1
10.73
8.73
6.06
2.94
-0.3
-3.32
-5.98
-8.34
-10.53
-12.67
-14.66
-16.26
-17.18
-17.25
-16.54
-15.31
-13.9
-12.61
-11.6
-10.89
-10.42
-10.17
-10.13
-10.39
-11.0
-11.96
-13.17
-14.47
-15.72
-16.8
-17.77
-18.73
-19.87
-21.32
-23.15
-25.38
-27.97
-30.9
-34.04
-37.07
-39.5
-40.68
-40.01
-37.2
-32.38
-26.12
-19.25
-12.56
-6.59
-1.54
2.66
6.17
9.12
11.51
13.23
14.15
14.22
13.54
12.39
11.2
10.46
10.58
11.77
13.96
16.82
19.89
22.74
25.09
26.91
28.32
29.52
30.67
31.86
33.05
34.18
35.14
35.8
36.05
35.76
34.85
33.32
31.27
28.89
26.45
24.19
22.27
20.73
19.51
18.44
17.32
15.94
14.14
11.79
8.87
5.49
1.88
-1.62
-4.62
-6.84
-8.11
-8.45
-8.04
-7.2
-6.24
-5.43
-4.95
-4.86
-5.15
-5.77
-6.73
-8.02
-9.71
-11.82
-14.28
-16.9
-19.31
-21.08
-21.8
-21.21
-19.25
-16.14
-12.26
-8.12
-4.16
-0.65
2.4
5.17
7.89
10.72
13.62
16.34
18.56
20.07
20.82
21.04
21.03
21.06
21.25
21.5
21.64
21.56
21.28
20.95
20.71
20.63
20.63
20.53
20.16
19.42
18.34
17.08
15.81
14.67
13.72
12.94
12.27
11.6
10.85
10.0
9.09
8.22
7.51
7.01
6.7
6.5
6.29
6.0
5.64
5.25
4.9
4.62
4.37
4.1
3.73
3.24
2.71
2.24
1.98
2.01
2.28
2.61
2.74
2.46
1.65
0.39
-1.11
-2.57
-3.8
-4.74
-5.45
-6.05
-6.69
-7.45
-8.35
-9.37
-10.46
-11.55
-12.58
-13.52
-14.42
-15.47
-16.9
-18.85
-21.27
-23.79
-25.76
-26.51
-25.59
-22.98
-19.1
-14.64
-10.25
-6.4
-3.25
-0.72
1.33
3.07
4.63
6.16
7.78
9.54
11.38
13.1
14.43
15.17
15.27
14.87
14.25
13.7
13.45
13.59
14.05
14.66
15.21
15.52
15.47
15.08
14.45
13.71
13.04
12.52
12.16
11.89
11.55
11.0
10.13
8.97
7.67
6.47
5.58
5.15
5.16
5.5
5.98
6.45
6.76
6.83
6.6
6.06
5.24
4.26
3.3
2.5
1.97
1.7
1.59
1.45
1.11
0.51
-0.3
-1.18
-1.97
-2.57
-2.98
-3.31
-3.68
-4.24
-5.02
-6.05
-7.3
-8.71
-10.18
-11.6
-12.87
-13.95
-14.92
-15.95
-17.23
-18.85
-20.69
-22.45
-23.69
-24.03
-23.18
-21.14
-18.13
-14.56
-10.94
-7.71
-5.18
-3.36
-2.06
-0.91
0.41
2.12
4.2
6.44
8.55
10.23
11.36
11.97
12.23
12.34
12.45
12.59
12.74
12.85
12.92
12.93
12.88
12.71
12.33
11.66
10.71
9.57
8.46
7.57
7.02
6.8
6.78
6.76
6.55
6.06
5.31
4.41
3.52
2.8
2.33
2.1
2.05
2.07
2.08
2.0
1.77
1.33
0.67
-0.18
-1.14
-2.08
-2.91
-3.63
-4.3
-5.05
-5.94
-6.93
-7.91
-8.79
-9.54
-10.24
-11.0
-11.87
-12.85
-13.85
-14.84
-15.84
-17.01
-18.54
-20.51
-22.84
-25.19
-27.05
-27.87
-27.25
-25.11
-21.71
-17.62
-13.52
-9.93
-7.15
-5.11
-3.55
-2.12
-0.59
1.13
2.99
4.87
6.67
8.26
9.56
10.51
11.06
11.24
11.13
10.87
10.65
10.64
10.97
11.66
12.64
13.75
14.75
15.45
15.7
15.47
14.84
13.95
12.92
11.86
10.84
9.9
9.1
8.49
8.08
7.84
7.72
7.63
7.49
7.25
6.85
6.3
5.6
4.76
3.85
2.89
1.92
1.01
0.2
-0.45
-0.96
-1.37
-1.79
-2.3
-2.97
-3.78
-4.65
-5.53
-6.43
-7.4
-8.54
-9.9
-11.45
-13.06
-14.57
-15.91
-17.09
-18.23
-19.56
-21.24
-23.33
-25.75
-28.16
-30.13
-31.13
-30.75
-28.84
-25.56
-21.38
-16.92
-12.78
-9.35
-6.71
-4.67
-2.93
-1.23
0.59
2.51
4.43
6.25
7.89
9.29
10.43
11.26
11.78
12.04
12.15
12.29
12.59
13.09
13.71
14.27
14.64
14.76
14.69
14.51
14.27
13.96
13.51
12.89
12.18
11.48
10.9
10.48
10.11
9.65
8.99
8.16
7.26
6.45
5.84
5.47
5.3
5.24
5.17
4.97
4.54
3.81
2.8
1.56
0.16
-1.29
-2.71
-4.05
-5.25
-6.33
-7.31
-8.21
-9.02
-9.7
-10.16
-10.36
-10.36
-10.36
-10.66
-11.53
-13.16
-15.52
-18.4
-21.39
-23.97
-25.58
-25.8
-24.42
-21.55
-17.62
-13.23
-8.96
-5.24
-2.24
0.1
1.94
3.46
4.77
5.88
6.72
7.2
7.29
7.04
6.6
6.21
6.06
6.28
6.84
7.62
8.42
9.09
9.54
9.81
9.96
10.04
10.06
9.96
9.71
9.32
8.86
8.43
8.04
7.63
7.1
6.35
5.44
4.47
3.61
2.93
2.36
1.81
1.18
0.45
-0.33
-1.08
-1.8
-2.56
-3.45
-4.54
-5.85
-7.34
-8.94
-10.59
-12.27
-13.96
-15.64
-17.34
-19.13
-21.18
-23.65
-26.65
-30.07
-33.56
-36.56
-38.46
-38.77
-37.27
-34.1
-29.71
-24.68
-19.59
-14.9
-10.84
-7.48
-4.74
-2.44
-0.34
1.73
3.9
6.15
8.35
10.33
11.9
12.94
13.46
13.57
13.53
13.57
13.92
14.64
15.64
16.69
17.55
18.07
18.2
18.03
17.67
17.21
16.68
16.09
15.46
14.83
14.24
13.74
13.27
12.78
12.17
11.39
10.4
9.22
7.86
6.37
4.85
3.38
2.02
0.73
-0.62
-2.14
-3.92
-5.88
-7.86
-9.67
-11.18
-12.38
-13.38
-14.33
-15.46
-16.95
-18.94
-21.43
-24.18
-26.66
-28.06
-27.53
-24.43
-18.7
-10.95
-2.33
5.72
12.04
16.11
18.26
19.5
21.2
24.57
30.19
37.85
46.61
55.08
61.76
65.39
65.11
60.63
52.22
40.65
27.05
12.66
-1.33
-14.05
-24.96
-33.8
-40.51
-45.22
-48.12
-49.53
-49.85
-49.42
-48.46
-47.05
-45.13
-42.65
-39.69
-36.51
-33.44
-30.8
-28.78
-27.38
-26.47
-25.88
-25.46
-25.17
-25.0
-24.96
-25.02
-25.11
-25.15
-25.11
-25.06
-25.14
-25.45
-26.01
-26.74
-27.51
-28.26
-29.03
-30.03
-31.46
-33.43
-35.78
-38.08
-39.7
-39.98
-38.45
-34.94
-29.65
-23.07
-15.84
-8.6
-1.87
4.06
9.11
13.39
17.1
20.45
23.58
26.45
28.92
30.8
32.01
32.62
32.86
33.01
33.29
33.76
34.33
34.91
35.44
35.95
36.48
37.04
37.53
37.75
37.54
36.84
35.74
34.45
33.16
32.03
31.07
30.2
29.34
28.41
27.44
26.48
25.64
24.96
24.44
24.02
23.63
23.23
22.78
22.25
21.63
20.94
20.25
19.61
19.11
18.75
18.44
18.05
17.48
16.7
15.82
14.99
14.36
13.92
13.53
12.98
12.17
11.09
9.9
8.77
7.82
7.06
6.43
5.84
5.23
4.62
4.04
3.53
3.05
2.56
1.97
1.31
0.61
-0.03
-0.56
-0.95
-1.27
-1.6
-1.99
-2.45
-2.96
-3.51
-4.14
-4.92
-5.9
-7.05
-8.22
-9.23
-9.94
-10.25
-10.23
-10.01
-9.76
-9.69
-9.9
-10.48
-11.39
-12.56
-13.94
-15.52
-17.32
-19.39
-21.71
-24.1
-26.35
-28.28
-29.82
-31.09
-32.37
-33.95
-36.08
-38.85
-42.09
-45.35
-47.95
-49.11
-48.15
-44.73
-39.01
-31.62
-23.47
-15.48
-8.34
-2.39
2.33
5.98
8.8
11.1
13.16
15.2
17.37
19.63
21.77
23.54
24.74
25.35
25.55
25.63
25.86
26.37
27.12
27.97
28.71
29.2
29.33
29.04
28.27
27.02
25.35
23.42
21.46
19.66
18.15
16.88
15.71
14.46
13.02
11.36
9.61
7.92
6.4
5.11
3.99
2.89
1.62
0.02
-1.99
-4.36
-6.9
-9.37
-11.54
-13.3
-14.72
-15.99
-17.37
-19.1
-21.3
-23.87
-26.47
-28.57
-29.58
-29.06
-26.84
-23.11
-18.34
-13.15
-8.06
-3.42
0.58
3.92
6.65
8.88
10.71
12.29
13.69
14.91
15.86
16.39
16.45
16.07
15.45
14.83
14.48
14.53
14.99
15.76
16.65
17.49
18.13
18.46
18.47
18.17
17.6
16.81
15.84
14.73
13.55
12.31
11.0
9.56
7.92
6.0
3.86
1.65
-0.43
-2.2
-3.67
-4.95
-6.26
-7.76
-9.46
-11.23
-12.86
-14.2
-15.23
-16.09
-17.01
-18.19
-19.78
-21.73
-23.85
-25.74
-26.94
-26.95
-25.45
-22.37
-17.96
-12.76
-7.41
-2.5
1.6
4.76
7.04
8.57
9.48
9.87
9.83
9.48
8.97
8.45
8.01
7.69
7.43
7.21
7.02
6.92
6.93
7.07
7.29
7.53
7.72
7.81
7.8
7.68
7.47
7.17
6.8
6.38
5.93
5.47
4.97
4.4
3.71
2.88
1.94
0.91
-0.15
-1.21
-2.25
-3.31
-4.41
-5.55
-6.66
-7.65
-8.47
-9.14
-9.83
-10.75
-12.12
-13.96
-16.12
-18.25
-19.86
-20.51
-19.86
-17.78
-14.4
-10.06
-5.27
-0.59
3.55
6.89
9.46
11.39
12.87
14.0
14.79
15.22
15.3
15.13
14.84
14.57
14.4
14.36
14.47
14.73
15.14
15.72
16.44
17.2
17.92
18.48
18.81
18.82
18.47
17.76
16.82
15.81
14.86
14.03
13.32
12.68
12.09
11.58
11.13
10.94
11.09
11.56
12.22
12.93
13.56
14.06
14.38
14.44
14.56
14.97
15.71
16.62
17.47
18.06
18.52
19.14
20.31
22.98
27.72
34.52
42.82
51.66
60.0
67.07
72.46
76.08
79.09
82.65
87.65
94.31
102.21
110.63
119.15
127.96
131.68
126.87
111.83
87.45
56.95
24.48
-6.45
-33.64
-56.24
-74.34
-87.72
-96.58
-101.43
-103.06
-102.44
-100.49
-97.92
-95.26
-92.91
-90.4
-87.32
-83.35
-78.45
-72.93
-67.3
-62.11
-57.77
-54.5
-51.86
-49.3
-46.34
-42.84
-38.96
-35.11
-31.65
-28.77
-26.51
-24.48
-22.4
-20.09
-17.63
-15.17
-12.87
-10.77
-8.76
-6.74
-4.5
-1.98
0.78
3.65
6.44
8.91
10.81
12.2
12.65
12.01
10.28
7.62
4.34
0.83
-2.51
-5.39
-7.71
-9.59
-11.16
-12.6
-13.94
-15.08
-15.86
-16.12
-15.85
-15.14
-14.22
-13.22
-12.21
-11.24
-10.33
-9.52
-8.86
-8.33
-7.91
-7.5
-6.97
-6.26
-5.4
-4.47
-3.61
-2.87
-2.29
-1.86
-1.55
-1.28
-0.98
-0.6
-0.13
0.4
0.96
1.49
1.93
2.28
2.54
2.76
2.97
3.2
3.42
3.6
3.75
3.83
3.77
3.56
3.19
2.71
2.24
1.84
1.55
1.33
1.1
0.78
0.32
-0.28
-0.98
-1.72
-2.44
-3.11
-3.73
-4.34
-4.94
-5.58
-6.27
-7.04
-7.88
-8.81
-9.76
-10.67
-11.44
-12.03
-12.47
-12.88
-13.44
-14.28
-15.37
-16.48
-17.21
-17.11
-15.9
-13.57
-10.37
-6.75
-3.18
0.02
2.65
4.75
6.38
7.67
8.7
9.52
10.18
10.7
11.13
11.48
11.78
11.99
12.05
11.86
11.41
10.75
10.08
9.59
9.42
9.58
9.88
10.08
9.98
9.52
8.77
7.87
6.92
5.98
5.08
4.28
3.64
3.28
3.17
3.24
3.3
3.19
2.84
2.33
1.8
1.42
1.24
1.16
1.03
0.72
0.18
-0.53
-1.26
-1.88
-2.3
-2.55
-2.72
-2.95
-3.29
-3.77
-4.33
-4.93
-5.57
-6.28
-7.13
-8.16
-9.33
-10.54
-11.62
-12.44
-12.97
-13.27
-13.54
-13.98
-14.75
-15.86
-17.2
-18.48
-19.3
-19.31
-18.28
-16.22
-13.36
-10.13
-7.0
-4.32
-2.26
-0.79
0.29
1.23
2.24
3.4
4.67
5.93
7.03
7.86
8.4
8.68
8.74
8.61
8.29
7.8
7.23
6.77
6.62
6.93
7.66
8.55
9.21
9.3
8.66
7.43
5.95
4.61
3.7
3.27
3.14
3.06
2.84
2.39
1.78
1.12
0.53
0.06
-0.29
-0.55
-0.75
-0.91
-1.1
-1.35
-1.69
-2.14
-2.66
-3.22
-3.76
-4.27
-4.8
-5.38
-6.06
-6.82
-7.62
-8.39
-9.1
-9.78
-10.5
-11.37
-12.44
-13.74
-15.22
-16.81
-18.49
-20.22
-21.96
-23.58
-24.86
-25.53
-25.37
-24.35
-22.7
-20.8
-19.16
-18.11
-17.82
-18.25
-19.17
-20.28
-21.23
-21.7
-21.4
-20.05
-17.54
-13.85
-9.19
-3.83
1.86
7.55
12.98
17.92
22.2
25.68
28.29
30.04
31.02
31.34
31.11
30.45
29.41
28.1
26.6
25.04
23.53
22.1
20.71
19.33
17.94
16.57
15.25
14.02
12.88
11.83
10.88
10.04
9.31
8.66
8.0
7.21
6.22
5.04
3.76
2.57
1.59
0.91
0.44
0.04
-0.47
-1.24
-2.32
-3.69
-5.25
-6.84
-8.32
-9.62
-10.74
-11.76
-12.83
-14.06
-15.46
-16.91
-18.15
-18.88
-18.78
-17.68
-15.58
-12.66
-9.25
-5.75
-2.52
0.17
2.26
3.83
5.09
6.25
7.45
8.69
9.87
10.86
11.55
11.93
12.06
12.06
12.06
12.11
12.25
12.45
12.72
13.01
13.32
13.56
13.65
13.48
12.99
12.24
11.38
10.58
10.0
9.66
9.5
9.35
9.06
8.53
7.75
6.8
5.82
4.99
4.44
4.23
4.32
4.51
4.54
4.17
3.31
2.07
0.71
-0.52
-1.42
-1.98
-2.34
-2.75
-3.42
-4.46
-5.83
-7.37
-8.84
-10.06
-10.99
-11.72
-12.46
-13.42
-14.67
-16.14
-17.51
-18.42
-18.46
-17.37
-15.04
-11.62
-7.48
-3.17
0.77
3.97
6.36
8.09
9.45
10.63
11.64
12.24
12.08
10.83
8.35
4.72
0.14
-5.11
-10.78
-16.62
-22.35
-27.64
-32.08
-35.24
-36.8
-36.67
-35.01
-32.17
-28.55
-24.55
-20.49
-16.71
-13.57
-11.43
-10.65
-11.42
-13.76
-17.45
-22.01
-26.79
-30.94
-33.62
-34.06
-31.76
-26.62
-19.04
-9.75
0.32
10.35
19.76
28.26
35.69
41.95
46.82
50.04
51.39
50.87
48.8
45.74
42.36
39.23
36.7
34.86
33.54
32.5
31.48
30.33
29.05
27.79
26.79
26.25
26.27
26.84
27.87
29.26
31.02
33.17
35.73
38.58
41.43
43.95
45.76
46.62
46.37
44.99
42.5
39.0
34.6
29.46
23.85
18.05
12.39
7.14
2.47
-1.6
-5.19
-8.52
-11.85
-15.32
-18.96
-22.66
-26.22
-29.44
-32.19
-34.4
-36.05
-37.17
-37.79
-38.02
-38.03
-37.99
-37.99
-37.94
-37.47
-36.05
-33.16
-28.53
-22.32
-15.19
-8.09
-2.02
2.29
4.57
5.07
4.44
3.52
3.08
3.66
5.41
8.1
11.35
14.71
17.96
21.09
24.35
28.09
32.6
37.94
43.97
50.36
56.72
62.79
68.4
73.52
78.07
81.92
84.83
86.59
87.17
86.82
86.03
85.34
85.13
85.5
86.26
87.12
87.82
88.23
88.3
87.94
86.87
84.72
81.14
75.97
69.38
61.77
53.63
45.33
36.95
28.33
19.18
9.31
-1.24
-12.11
-22.74
-32.56
-41.21
-48.76
-55.64
-62.5
-69.82
-77.66
-85.59
-92.84
-98.75
-103.14
-106.45
-109.55
-113.32
-118.18
-123.87
-129.64
-134.62
-138.28
-140.66
-142.32
-143.97
-146.21
-149.33
-153.28
-157.81
-162.53
-166.76
-169.37
-168.8
-163.51
-152.6
-136.43
-116.71
-96.04
-76.91
-60.67
-47.05
-34.38
-20.53
-3.88
15.94
38.04
60.71
82.05
100.4
114.5
123.44
126.53
123.42
114.27
100.07
82.53
63.81
45.93
30.18
16.94
5.78
-4.04
-13.16
-21.78
-29.75
-36.74
-42.5
-46.94
-50.11
-52.08
-52.93
-52.79
-51.84
-50.27
-48.15
-45.41
-41.85
-37.33
-31.95
-26.16
-20.65
-16.15
-13.13
-11.68
-11.52
-12.18
-13.23
-14.37
-15.53
-16.74
-18.05
-19.54
-21.24
-23.13
-25.15
-27.14
-28.78
-29.62
-29.13
-26.91
-22.83
-17.17
-10.58
-3.92
2.03
6.78
10.21
12.61
14.4
15.97
17.51
18.98
20.15
20.82
20.88
20.44
19.77
19.22
19.09
19.51
20.42
21.62
22.89
24.08
25.15
26.15
27.1
27.93
28.5
28.62
28.21
27.38
26.34
25.36
24.63
24.15
23.79
23.3
22.49
21.21
19.45
17.31
14.98
12.66
10.55
8.76
7.26
5.89
4.43
2.69
0.61
-1.76
-4.23
-6.66
-8.96
-11.15
-13.34
-15.69
-18.37
-21.49
-25.06
-28.91
-32.61
-35.58
-37.13
-36.7
-33.99
-29.1
-22.56
-15.16
-7.74
-1.0
4.66
9.2
12.85
15.96
18.83
21.57
24.12
26.27
27.81
28.66
28.92
28.79
28.6
28.59
28.94
29.69
30.77
32.02
33.25
34.28
34.91
35.01
34.51
33.47
32.0
30.3
28.56
26.9
25.38
23.98
22.65
21.33
19.99
18.59
17.08
15.43
13.67
11.86
10.11
8.49
6.98
5.49
3.91
2.13
0.1
-2.16
-4.58
-7.08
-9.57
-11.94
-14.09
-16.02
-17.81
-19.72
-22.03
-24.91
-28.28
-31.66
-34.33
-35.46
-34.47
-31.16
-25.89
-19.36
-12.47
-5.98
-0.36
4.27
8.09
11.35
14.3
17.05
19.56
21.73
23.45
24.66
25.34
25.56
25.39
24.95
24.4
23.94
23.75
23.97
24.61
25.51
26.4
27.01
27.1
26.61
25.6
24.24
22.71
21.13
19.56
18.01
16.48
15.0
13.61
12.37
11.25
10.19
9.08
7.81
6.37
4.84
3.34
1.94
0.66
-0.6
-1.96
-3.46
-5.07
-6.69
-8.25
-9.72
-11.18
-12.72
-14.39
-16.2
-18.12
-20.16
-22.27
-24.35
-26.11
-27.08
-26.76
-24.79
-21.12
-16.1
-10.38
-4.67
0.45
4.68
8.0
10.55
12.53
14.07
15.24
16.07
16.57
16.78
16.74
16.52
16.22
15.96
15.88
16.09
16.61
17.34
18.14
18.84
19.29
19.45
19.27
18.77
17.94
16.83
15.51
14.17
12.99
12.08
11.43
10.93
10.45
9.9
9.28
8.66
8.09
7.61
7.18
6.76
6.32
5.87
5.39
4.88
4.34
3.74
3.12
2.59
2.24
2.16
2.31
2.59
2.86
2.99
2.96
2.78
2.54
2.3
2.04
1.75
1.34
0.82
0.23
-0.32
-0.73
-0.96
-1.01
-0.97
-0.91
-0.9
-0.95
-1.07
-1.25
-1.5
-1.82
-2.19
-2.55
-2.84
-3.02
-3.09
-3.09
-3.09
-3.09
-3.08
-3.01
-2.92
-2.86
-2.95
-3.27
-3.8
-4.45
-5.07
-5.53
-5.81
-5.98
-6.14
-6.43
-6.94
-7.72
-8.72
-9.82
-10.87
-11.72
-12.34
-12.8
-13.26
-13.94
-14.92
-16.19
-17.58
-18.87
-19.9
-20.65
-21.3
-22.08
-23.24
-24.85
-26.84
-28.93
-30.67
-31.55
-31.12
-29.08
-25.4
-20.39
-14.6
-8.77
-3.56
0.56
3.47
5.3
6.39
7.11
7.7
8.29
8.87
9.37
9.75
10.02
10.2
10.34
10.43
10.44
10.36
10.25
10.18
10.28
10.61
11.18
11.87
12.46
12.72
12.47
11.68
10.46
9.04
7.7
6.62
5.85
5.28
4.75
4.09
3.24
2.25
1.22
0.24
-0.66
-1.46
-2.19
-2.89
-3.53
-4.14
-4.74
-5.39
-6.17
-7.13
-8.27
-9.51
-10.74
-11.89
-12.95
-14.03
-15.23
-16.55
-17.81
-18.6
-18.45
-17.05
-14.34
-10.63
-6.46
-2.44
1.01
3.67
5.57
6.83
7.63
8.1
8.35
8.44
8.42
8.31
8.09
7.74
7.29
6.78
6.33
6.03
5.96
6.15
6.61
7.28
8.07
8.86
9.46
9.71
9.54
8.97
8.11
7.15
6.25
5.53
5.02
4.7
4.51
4.36
4.2
4.01
3.82
3.69
3.64
3.65
3.64
3.5
3.19
2.76
2.32
1.95
1.67
1.46
1.25
1.05
0.89
0.8
0.78
0.76
0.64
0.38
0.03
-0.25
-0.31
-0.11
0.32
0.8
1.17
1.34
1.29
1.08
0.77
0.39
-0.05
-0.55
-1.08
-1.54
-1.84
-1.94
-1.87
-1.74
-1.68
-1.75
-1.95
-2.2
-2.44
-2.65
-2.88
-3.2
-3.65
-4.17
-4.69
-5.13
-5.46
-5.73
-6.07
-6.54
-7.15
-7.83
-8.49
-9.07
-9.55
-9.98
-10.46
-11.06
-11.85
-12.84
-13.99
-15.28
-16.64
-18.01
-19.33
-20.52
-21.51
-22.31
-23.05
-23.93
-25.21
-27.04
-29.35
-31.76
-33.66
-34.33
-33.19
-30.04
-25.15
-19.14
-12.89
-7.19
-2.59
0.73
2.93
4.36
5.43
6.44
7.52
8.59
9.49
10.06
10.26
10.2
10.06
10.07
10.33
10.9
11.67
12.54
13.42
14.21
14.82
15.14
15.07
14.58
13.72
12.65
11.58
10.63
9.85
9.15
8.41
7.58
6.65
5.68
4.72
3.81
2.91
1.99
1.05
0.08
-0.88
-1.88
-2.95
-4.16
-5.5
-6.91
-8.33
-9.73
-11.14
-12.64
-14.29
-16.03
-17.66
-18.88
-19.34
-18.75
-16.98
-14.1
-10.4
-6.28
-2.15
1.64
4.89
7.55
9.65
11.27
12.42
13.14
13.44
13.39
13.11
12.73
12.39
12.17
12.1
12.17
12.31
12.44
12.5
12.46
12.39
12.34
12.35
12.37
12.25
11.82
11.0
9.82
8.49
7.27
6.35
5.77
5.39
4.97
4.32
3.39
2.25
1.04
-0.1
-1.13
-2.06
-2.96
-3.85
-4.77
-5.72
-6.74
-7.86
-9.09
-10.36
-11.59
-12.66
-13.58
-14.5
-15.64
-17.2
-19.29
-21.8
-24.38
-26.54
-27.76
-27.59
-25.8
-22.47
-17.98
-12.9
-7.86
-3.39
0.23
3.01
5.17
6.98
8.68
10.36
11.98
13.38
14.44
15.04
15.22
15.05
14.68
14.27
13.94
13.8
13.9
14.21
14.7
15.28
15.81
16.15
16.2
15.87
15.2
14.26
13.17
12.01
10.87
9.76
8.73
7.83
7.09
6.53
6.12
5.78
5.42
4.95
4.34
3.59
2.75
1.81
0.78
-0.33
-1.5
-2.73
-3.97
-5.22
-6.51
-7.84
-9.25
-10.71
-12.16
-13.53
-14.74
-15.8
-16.8
-17.87
-19.17
-20.74
-22.5
-24.12
-25.13
-25.0
-23.37
-20.26
-16.01
-11.27
-6.71
-2.83
0.2
2.49
4.29
5.88
7.4
8.9
10.32
11.58
12.6
13.31
13.67
13.74
13.63
13.49
13.45
13.57
13.78
14.02
14.22
14.38
14.55
14.75
14.88
14.78
14.28
13.35
12.12
10.87
9.87
9.28
9.03
8.9
8.64
8.1
7.28
6.31
5.33
4.45
3.71
3.11
2.6
2.15
1.74
1.3
0.83
0.3
-0.27
-0.83
-1.38
-1.92
-2.54
-3.33
-4.36
-5.62
-7.04
-8.45
-9.69
-10.65
-11.36
-11.93
-12.54
-13.38
-14.58
-16.12
-17.87
-19.53
-20.78
-21.25
-20.71
-19.05
-16.39
-12.99
-9.26
-5.58
-2.26
0.52
2.74
4.47
5.85
6.99
8.02
8.95
9.78
10.47
10.99
11.32
11.47
11.46
11.32
11.11
10.91
10.84
10.95
11.21
11.54
11.76
11.78
11.56
11.18
10.72
10.25
9.72
9.1
8.38
7.62
6.96
6.5
6.28
6.21
6.18
6.06
5.77
5.3
4.7
4.04
3.38
2.79
2.31
1.95
1.62
1.26
0.74
0.05
-0.79
-1.71
-2.65
-3.6
-4.56
-5.58
-6.59
-7.53
-8.3
-8.88
-9.38
-9.99
-10.87
-12.07
-13.48
-14.87
-16.03
-16.89
-17.59
-18.36
-19.45
-20.95
-22.72
-24.47
-25.78
-26.26
-25.61
-23.74
-20.76
-16.97
-12.82
-8.78
-5.25
-2.39
-0.19
1.59
3.22
4.9
6.68
8.42
9.92
10.97
11.51
11.61
11.49
11.31
11.2
11.19
11.25
11.37
11.55
11.8
12.06
12.25
12.25
11.96
11.44
10.81
10.27
9.92
9.77
9.68
9.49
9.11
8.57
7.99
7.51
7.2
7.0
6.83
6.59
6.27
5.92
5.6
5.29
4.91
4.37
3.59
2.59
1.5
0.43
-0.5
-1.26
-1.88
-2.4
-2.88
-3.31
-3.71
-4.07
-4.44
-4.89
-5.52
-6.38
-7.46
-8.69
-9.94
-11.14
-12.24
-13.27
-14.29
-15.33
-16.4
-17.48
-18.61
-19.89
-21.43
-23.26
-25.26
-27.09
-28.27
-28.36
-27.09
-24.51
-20.96
-16.97
-13.06
-9.57
-6.68
-4.31
-2.3
-0.43
1.45
3.41
5.4
7.26
8.84
10.02
10.75
11.1
11.19
11.16
11.15
11.25
11.52
12.02
12.72
13.55
14.33
14.89
15.03
14.72
14.0
13.08
12.16
11.38
10.79
10.35
10.0
9.69
9.45
9.28
9.2
9.13
8.94
8.54
7.88
7.01
6.06
5.15
4.4
3.83
3.41
3.03
2.59
1.97
1.09
-0.06
-1.4
-2.78
-4.04
-5.07
-5.86
-6.49
-7.16
-8.03
-9.17
-10.58
-12.14
-13.72
-15.23
-16.61
-17.93
-19.28
-20.81
-22.61
-24.74
-27.09
-29.43
-31.36
-32.41
-32.19
-30.48
-27.35
-23.17
-18.49
-13.89
-9.82
-6.49
-3.82
-1.54
0.7
3.14
5.81
8.55
11.05
13.07
14.52
15.48
16.07
16.44
16.63
16.68
16.69
16.84
17.29
18.11
19.17
20.18
20.83
20.9
20.39
19.46
18.38
17.35
16.49
15.81
15.26
14.78
14.33
13.89
13.43
12.9
12.26
11.49
10.61
9.69
8.8
7.96
7.16
6.36
5.5
4.59
3.65
2.71
1.76
0.75
-0.36
-1.58
-2.86
-4.11
-5.25
-6.29
-7.32
-8.48
-9.91
-11.65
-13.62
-15.63
-17.5
-19.06
-20.31
-21.38
-22.54
-24.07
-26.16
-28.76
-31.51
-33.81
-34.98
-34.47
-32.11
-28.13
-23.09
-17.67
-12.46
-7.83
-3.93
-0.68
2.05
4.48
6.78
9.04
11.26
13.31
15.02
16.18
16.73
16.77
16.51
16.25
16.22
16.55
17.22
18.1
19.02
19.85
20.48
20.87
20.99
20.78
20.22
19.31
18.14
16.87
15.7
14.75
14.05
13.51
13.0
12.44
11.75
10.95
10.09
9.2
8.36
7.62
6.98
6.45
5.94
5.34
4.55
3.54
2.4
1.23
0.12
-0.88
-1.86
-2.92
-4.1
-5.4
-6.75
-8.05
-9.28
-10.42
-11.5
-12.54
-13.52
-14.52
-15.64
-17.09
-19.02
-21.4
-23.92
-26.06
-27.24
-27.01
-25.27
-22.23
-18.34
-14.09
-9.88
-5.98
-2.52
0.47
2.99
5.12
6.92
8.52
9.94
11.19
12.2
12.89
13.26
13.38
13.38
13.34
13.34
13.39
13.49
13.66
13.94
14.33
14.78
15.13
15.22
14.92
14.23
13.29
12.32
11.5
10.93
10.59
10.35
10.05
9.57
8.87
7.98
7.02
6.12
5.36
4.77
4.3
3.82
3.18
2.27
1.04
-0.47
-2.13
-3.8
-5.33
-6.62
-7.68
-8.57
-9.45
-10.44
-11.62
-12.97
-14.42
-15.85
-17.22
-18.56
-19.99
-21.68
-23.72
-26.07
-28.47
-30.49
-31.64
-31.5
-29.88
-26.83
-22.66
-17.85
-12.88
-8.16
-4.01
-0.59
2.1
4.2
5.98
7.7
9.51
11.37
13.07
14.33
14.98
15.04
14.73
14.37
14.22
14.43
14.94
15.61
16.3
16.89
17.36
17.64
17.66
17.34
16.6
15.47
14.13
12.83
11.84
11.28
11.07
10.96
10.7
10.14
9.33
8.43
7.65
7.04
6.55
6.02
5.34
4.47
3.51
2.57
1.74
1.02
0.35
-0.37
-1.21
-2.2
-3.34
-4.61
-5.97
-7.38
-8.81
-10.24
-11.65
-13.03
-14.35
-15.62
-16.86
-18.11
-19.49
-21.12
-23.07
-25.27
-27.49
-29.35
-30.36
-30.11
-28.39
-25.23
-20.96
-16.1
-11.17
-6.62
-2.7
0.55
3.21
5.43
7.35
9.06
10.56
11.82
12.79
13.42
13.75
13.83
13.79
13.75
13.84
14.15
14.7
15.41
16.15
16.81
17.3
17.61
17.76
17.8
17.72
17.45
16.9
16.0
14.8
13.38
11.87
10.41
9.01
7.7
6.43
5.15
3.87
2.59
1.31
0.09
-1.07
-2.16
-3.22
-4.3
-5.5
-6.86
-8.37
-9.91
-11.33
-12.5
-13.37
-14.01
-14.59
-15.35
-16.47
-18.05
-19.98
-21.96
-23.57
-24.33
-23.9
-22.1
-18.98
-14.81
-9.97
-4.88
0.03
4.46
8.22
11.31
13.87
16.15
18.36
20.59
22.8
24.8
26.45
27.73
28.77
29.83
31.21
33.06
35.35
37.91
40.47
42.8
44.73
46.22
47.26
47.86
47.89
47.16
45.4
42.42
38.16
32.82
26.8
20.68
15.07
10.41
6.84
4.17
1.88
-0.71
-4.21
-8.96
-14.94
-21.76
-28.85
-35.65
-41.82
-47.27
-52.05
-56.22
-59.79
-62.69
-64.87
-66.46
-67.71
-68.98
-70.54
-72.5
-74.75
-77.0
-78.82
-79.72
-79.18
-76.77
-72.32
-65.93
-58.06
-49.37
-40.6
-32.39
-25.14
-19.07
-14.21
-10.46
-7.7
-5.76
-4.49
-3.78
-3.55
-3.7
-4.12
-4.68
-5.32
-6.04
-6.88
-7.84
-8.74
-9.27
-9.1
-8.03
-6.12
-3.61
-0.79
2.23
5.57
9.54
14.5
20.7
28.21
36.88
46.46
56.6
66.92
77.04
86.68
95.64
103.85
111.23
117.62
122.75
126.3
127.98
127.6
125.03
120.1
112.52
101.89
87.92
70.64
50.61
28.84
6.7
-14.4
-33.13
-48.41
-59.45
-65.86
-67.73
-65.72
-60.94
-54.7
-48.16
-42.09
-36.73
-31.98
-27.67
-23.75
-20.37
-17.8
-16.19
-15.48
-15.36
-15.37
-15.04
-14.04
-12.27
-9.87
-7.2
-4.68
-2.73
-1.56
-1.16
-1.28
-1.53
-1.56
-1.13
-0.24
0.87
1.86
2.38
2.2
1.3
-0.12
-1.75
-3.21
-4.2
-4.58
-4.35
-3.62
-2.5
-1.09
0.58
2.43
4.29
5.86
6.83
6.94
6.17
4.72
2.98
1.3
-0.11
-1.24
-2.22
-3.17
-4.08
-4.76
-4.86
-4.04
-2.01
1.35
5.97
11.6
17.79
23.98
29.52
33.84
36.53
37.53
37.05
35.56
33.6
31.64
29.98
28.78
28.08
27.84
27.98
28.37
28.85
29.32
29.75
30.19
30.66
31.03
30.94
29.92
27.53
23.58
18.17
11.67
4.47
-3.13
-11.0
-19.08
-27.21
-35.0
-41.92
-47.45
-51.33
-53.73
-55.25
-56.74
-58.95
-62.27
-66.53
-71.14
-75.34
-78.59
-80.75
-82.16
-83.48
-85.4
-88.43
-92.73
-98.06
-103.72
-108.65
-111.45
-110.63
-104.99
-94.01
-78.15
-58.73
-37.49
-16.03
4.71
24.44
43.1
60.3
74.98
85.61
90.75
89.72
83.08
72.39
59.7
46.67
34.12
21.92
9.44
-3.76
-17.52
-30.99
-43.01
-52.65
-59.64
-64.25
-67.04
-68.3
-67.86
-65.17
-59.8
-51.8
-41.9
-31.24
-20.91
-11.58
-3.4
3.76
10.12
15.74
20.57
24.54
27.71
30.23
32.26
33.81
34.73
34.8
33.95
32.32
30.24
28.09
26.06
24.1
21.93
19.19
15.69
11.55
7.25
3.49
1.0
0.24
1.26
3.65
6.69
9.64
12.06
14.02
16.01
18.73
22.59
27.49
32.7
37.11
39.59
39.38
36.38
31.1
24.5
17.6
11.28
6.1
2.29
-0.15
-1.36
-1.66
-1.42
-1.15
-1.28
-2.11
-3.64
-5.58
-7.46
-8.9
-9.81
-10.49
-11.46
-13.27
-16.2
-20.11
-24.53
-28.79
-32.29
-34.6
-35.54
-35.08
-33.35
-30.59
-27.11
-23.33
-19.69
-16.57
-14.19
-12.53
-11.38
-10.47
-9.64
-8.91
-8.5
-8.76
-9.92
-11.99
-14.68
-17.37
-19.32
-19.89
-18.71
-15.77
-11.4
-6.12
-0.57
4.68
9.23
12.91
15.88
18.6
21.66
25.7
31.19
38.36
47.2
57.52
68.92
80.83
92.43
102.81
111.11
116.73
119.38
119.03
115.69
109.3
99.86
87.57
73.01
57.09
40.79
24.86
9.66
-4.71
-18.15
-30.24
-40.29
-47.56
-51.64
-52.7
-51.45
-48.9
-45.9
-42.98
-40.24
-37.63
-35.15
-33.06
-31.79
-31.7
-32.85
-34.89
-37.13
-38.9
-39.77
-39.73
-39.11
-38.34
-37.82
-37.77
-38.25
-39.11
-40.06
-40.7
-40.54
-39.2
-36.52
-32.63
-27.97
-23.1
-18.53
-14.58
-11.36
-8.81
-6.79
-5.22
-4.04
-3.22
-2.71
-2.43
-2.33
-2.36
-2.59
-3.1
-3.94
-5.06
-6.28
-7.27
-7.75
-7.56
-6.76
-5.53
-4.02
-2.16
0.33
3.79
8.47
14.25
20.69
27.22
33.3
38.62
43.12
46.84
49.88
52.31
54.23
55.85
57.45
59.21
61.12
62.92
64.23
64.66
64.01
62.32
59.76
56.61
53.12
49.54
46.05
42.81
39.86
37.08
34.25
31.12
27.54
23.59
19.5
15.66
12.46
10.26
9.3
9.67
11.33
14.05
17.5
21.32
25.22
29.02
32.66
36.1
39.3
42.14
44.46
46.07
46.86
46.82
46.07
44.78
43.11
41.2
39.09
36.78
34.27
31.65
29.06
26.65
24.45
22.32
19.98
17.08
13.41
8.93
3.82
-1.66
-7.23
-12.69
-17.91
-22.85
-27.45
-31.71
-35.7
-39.5
-43.19
-46.8
-50.26
-53.42
-56.21
-58.7
-61.21
-64.24
-68.39
-74.04
-81.18
-89.28
-97.46
-104.76
-110.56
-114.73
-117.73
-120.32
-123.3
-127.22
-132.14
-137.64
-142.69
-145.71
-144.81
-138.23
-125.14
-106.08
-83.1
-59.16
-37.11
-18.67
-3.98
8.13
19.28
30.54
41.95
52.66
61.48
67.62
70.94
71.83
70.78
68.04
63.61
57.41
49.7
41.24
33.14
26.5
21.93
19.32
17.9
16.69
14.87
12.08
8.52
4.73
1.28
-1.42
-3.29
-4.46
-5.18
-5.61
-5.76
-5.53
-4.79
-3.58
-2.12
-0.74
0.24
0.72
0.81
0.77
0.85
1.16
1.62
2.1
2.51
2.89
3.38
4.1
5.08
6.25
7.48
8.65
9.71
10.64
11.45
12.13
12.61
12.83
12.79
12.52
12.09
11.58
11.01
10.38
9.7
8.98
8.25
7.53
6.85
6.21
5.58
4.97
4.33
3.56
2.58
1.34
-0.06
-1.45
-2.58
-3.3
-3.6
-3.64
-3.66
-3.84
-4.2
-4.67
-5.1
-5.38
-5.46
-5.39
-5.23
-5.07
-5.0
-5.12
-5.51
-6.18
-7.05
-7.96
-8.75
-9.31
-9.72
-10.14
-10.82
-11.96
-13.69
-15.99
-18.67
-21.41
-23.84
-25.68
-26.83
-27.45
-27.89
-28.51
-29.53
-30.82
-31.95
-32.32
-31.38
-28.87
-24.88
-19.81
-14.26
-8.86
-4.14
-0.4
2.3
4.16
5.48
6.54
7.56
8.54
9.41
10.07
10.5
10.79
11.07
11.47
12.02
12.71
13.47
14.25
15.04
15.84
16.63
17.35
17.92
18.27
18.35
18.14
17.65
16.92
15.98
14.88
13.67
12.39
11.07
9.73
8.39
7.1
5.93
4.89
3.99
3.18
2.4
1.6
0.75
-0.18
-1.23
-2.46
-3.92
-5.63
-7.54
-9.55
-11.56
-13.58
-15.7
-18.04
-20.66
-23.39
-25.9
-27.66
-28.21
-27.24
-24.78
-21.09
-16.62
-11.86
-7.18
-2.85
0.99
4.26
6.91
8.96
10.47
11.53
12.24
12.69
12.91
12.96
12.9
12.88
13.05
13.52
14.31
15.31
16.39
17.41
18.32
19.14
19.83
20.34
20.51
20.19
19.31
17.97
16.41
14.92
13.74
12.9
12.26
11.57
10.63
9.38
7.94
6.51
5.24
4.16
3.13
1.95
0.46
-1.32
-3.25
-5.15
-6.88
-8.43
-9.96
-11.66
-13.68
-16.09
-18.8
-21.68
-24.58
-27.26
-29.45
-30.8
-30.9
-29.44
-26.35
-21.87
-16.5
-10.88
-5.57
-0.9
3.02
6.3
9.11
11.6
13.84
15.81
17.4
18.54
19.17
19.39
19.4
19.47
19.81
20.51
21.48
22.56
23.54
24.31
24.81
25.03
24.95
24.53
23.72
22.58
21.27
20.02
19.01
18.34
17.9
17.5
16.93
16.05
14.8
13.25
11.53
9.77
8.15
6.76
5.65
4.73
3.83
2.76
1.38
-0.28
-2.07
-3.75
-5.18
-6.39
-7.53
-8.85
-10.49
-12.49
-14.74
-17.09
-19.32
-21.17
-22.33
-22.48
-21.35
-18.86
-15.21
-10.81
-6.19
-1.81
2.06
5.39
8.28
10.88
13.26
15.38
17.11
18.35
19.04
19.18
18.89
18.31
17.59
16.89
16.28
15.86
15.68
15.79
16.19
16.83
17.58
18.24
18.63
18.6
18.12
17.26
16.2
15.13
14.24
13.6
13.2
12.97
12.78
12.57
12.3
12.0
11.73
11.53
11.35
11.15
10.85
10.4
9.83
9.16
8.46
7.72
6.95
6.17
5.44
4.87
4.55
4.51
4.66
4.84
4.87
4.68
4.31
3.9
3.57
3.37
3.23
3.05
2.74
2.33
1.9
1.59
1.51
1.64
1.88
2.1
2.18
2.08
1.79
1.36
0.84
0.29
-0.23
-0.68
-0.98
-1.06
-0.9
-0.55
-0.06
0.43
0.88
1.28
1.71
2.27
3.04
4.01
5.11
6.18
7.07
7.67
7.99
8.04
7.9
7.64
7.32
7.0
6.74
6.56
6.45
6.34
6.18
5.98
5.84
5.92
6.4
7.33
8.66
10.18
11.65
12.91
13.98
15.06
16.41
18.28
20.74
23.62
26.54
29.11
31.02
32.19
32.78
33.13
33.57
34.27
35.1
35.6
35.1
32.9
28.55
21.91
13.36
3.61
-6.4
-15.8
-24.03
-31.03
-37.28
-43.64
-51.08
-60.17
-70.76
-81.82
-91.62
-98.33
-100.58
-97.9
-90.81
-80.55
-68.63
-56.47
-45.2
-35.66
-28.45
-23.89
-21.86
-21.7
-22.35
-22.62
-21.65
-19.21
-15.69
-11.83
-8.28
-5.26
-2.52
0.46
4.09
8.51
13.57
19.08
24.93
31.21
38.04
45.36
52.9
60.17
66.7
72.23
76.79
80.65
84.08
87.31
90.38
93.2
95.58
97.26
97.89
97.09
94.45
89.65
82.57
73.4
62.7
51.28
39.96
29.32
19.51
10.19
0.74
-9.46
-20.83
-33.47
-47.21
-61.79
-76.97
-92.56
-108.26
-123.47
-137.13
-147.8
-154.05
-154.86
-150.11
-140.7
-128.31
-114.88
-101.87
-89.94
-78.91
-68.25
-57.62
-47.14
-37.46
-29.35
-23.36
-19.5
-17.26
-15.86
-14.53
-12.79
-10.58
-8.23
-6.32
-5.4
-5.77
-7.29
-9.44
-11.58
-13.21
-14.26
-15.06
-16.06
-17.5
-19.14
-20.35
-20.49
-19.25
-16.92
-14.25
-12.01
-10.56
-9.69
-8.69
-6.76
-3.47
1.03
6.07
10.7
14.17
16.19
16.94
17.02
17.07
17.51
18.39
19.47
20.33
20.69
20.53
20.17
20.06
20.58
21.84
23.63
25.54
27.16
28.33
29.15
29.93
31.02
32.62
34.69
37.06
39.51
41.89
44.05
45.9
47.3
48.1
48.3
48.07
47.78
47.85
48.55
49.84
51.34
52.49
52.79
52.04
50.46
48.53
46.81
45.68
45.21
45.2
45.26
45.03
44.24
42.78
40.65
37.97
34.83
31.28
27.25
22.64
17.33
11.35
4.9
-1.71
-8.19
-14.4
-20.49
-26.74
-33.51
-41.02
-49.3
-58.13
-66.95
-74.86
-80.71
-83.29
-81.77
-76.04
-66.95
-56.1
-45.32
-36.07
-28.99
-23.94
-20.3
-17.45
-15.14
-13.5
-12.8
-13.16
-14.37
-15.95
-17.34
-18.14
-18.3
-17.98
-17.5
-17.09
-16.8
-16.54
-16.22
-15.87
-15.69
-15.98
-16.99
-18.8
-21.23
-23.92
-26.54
-28.88
-30.94
-32.86
-34.81
-36.91
-39.14
-41.42
-43.59
-45.48
-47.01
-48.27
-49.5
-51.07
-53.27
-56.14
-59.24
-61.76
-62.78
-61.68
-58.59
-54.3
-50.05
-46.96
-45.63
-45.99
-47.48
-49.31
-50.73
-51.17
-50.24
-47.79
-43.99
-39.37
-34.75
-30.99
-28.55
-27.24
-26.26
-24.5
-21.06
-15.6
-8.48
-0.48
7.45
14.52
20.25
24.44
27.16
28.64
29.22
29.29
29.15
29.01
28.91
28.85
28.8
28.85
29.09
29.57
30.19
30.79
31.2
31.39
31.44
31.5
31.64
31.75
31.59
30.97
29.85
28.44
27.07
26.08
25.66
25.77
26.2
26.6
26.69
26.26
25.28
23.88
22.29
20.78
19.59
18.82
18.46
18.41
18.46
18.41
18.06
17.23
15.86
13.92
11.41
8.34
4.73
0.59
-4.0
-8.87
-13.8
-18.52
-22.81
-26.54
-29.73
-32.5
-35.06
-37.61
-40.28
-43.06
-45.73
-47.86
-48.92
-48.38
-45.94
-41.64
-35.84
-29.16
-22.26
-15.71
-9.81
-4.62
-0.02
4.15
8.04
11.7
15.03
17.87
20.04
21.48
22.33
22.87
23.47
24.46
26.01
28.08
30.51
33.04
35.43
37.52
39.16
40.28
40.75
40.54
39.65
38.2
36.41
34.55
32.88
31.53
30.53
29.76
29.03
28.2
27.2
26.09
24.99
24.05
23.32
22.72
22.09
21.22
19.99
18.39
16.55
14.66
12.88
11.33
9.97
8.7
7.36
5.83
4.03
1.93
-0.38
-2.79
-5.16
-7.39
-9.45
-11.42
-13.44
-15.68
-18.22
-21.0
-23.75
-26.03
-27.33
-27.18
-25.33
-21.84
-17.09
-11.67
-6.2
-1.18
3.15
6.79
9.9
12.73
15.5
18.31
21.11
23.71
25.86
27.34
28.08
28.19
27.93
27.63
27.52
27.72
28.19
28.81
29.48
30.07
30.47
30.59
30.32
29.62
28.54
27.21
25.8
24.47
23.26
22.17
21.12
20.05
18.99
17.94
16.96
16.05
15.2
14.35
13.5
12.65
11.81
11.0
10.17
9.27
8.25
7.12
5.93
4.75
3.63
2.52
1.37
0.12
-1.22
-2.56
-3.79
-4.81
-5.65
-6.43
-7.33
-8.5
-9.97
-11.66
-13.4
-15.02
-16.43
-17.68
-18.97
-20.51
-22.47
-24.75
-27.02
-28.75
-29.32
-28.3
-25.59
-21.45
-16.46
-11.32
-6.61
-2.68
0.42
2.89
5.01
7.03
9.05
11.07
12.97
14.61
15.92
16.87
17.54
18.01
18.38
18.73
19.08
19.47
19.9
20.36
20.85
21.29
21.62
21.72
21.49
20.91
20.08
19.18
18.38
17.84
17.54
17.4
17.27
17.02
16.61
16.05
15.41
14.75
14.13
13.56
12.97
12.27
11.33
10.05
8.44
6.56
4.59
2.75
1.26
0.27
-0.13
0.02
0.57
1.3
1.98
2.43
2.64
2.71
2.86
3.25
3.95
4.87
5.79
6.42
6.47
5.75
4.21
2.0
-0.61
-3.21
-5.41
-6.92
-7.64
-7.67
-7.32
-6.89
-6.66
-6.72
-7.02
-7.4
-7.68
-7.72
-7.52
-7.16
-6.83
-6.72
-7.01
-7.73
-8.79
-9.95
-10.95
-11.54
-11.62
-11.23
-10.53
-9.75
-9.04
-8.47
-8.04
-7.71
-7.47
-7.38
-7.53
-7.97
-8.68
-9.5
-10.21
-10.68
-10.86
-10.83
-10.77
-10.8
-10.9
-10.93
-10.68
-10.02
-8.98
-7.73
-6.49
-5.47
-4.8
-4.5
-4.55
-4.87
-5.35
-5.8
-6.03
-5.92
-5.51
-5.06
-5.03
-5.94
-8.08
-11.39
-15.4
-19.48
-23.03
-25.68
-27.38
-28.34
-28.98
-29.83
-31.49
-34.52
-39.24
-45.56
-52.81
-59.88
-65.45
-68.41
-68.23
-65.05
-59.54
-52.54
-44.81
-36.86
-29.01
-21.43
-14.36
-8.0
-2.59
1.75
5.05
7.46
9.14
10.21
10.77
10.82
10.38
9.56
8.53
7.68
7.44
8.3
10.56
14.22
18.95
24.18
29.24
33.58
36.86
38.97
40.08
40.51
40.66
40.84
41.01
40.78
39.43
36.16
30.47
22.37
12.52
2.11
-7.33
-14.29
-17.59
-16.68
-11.78
-3.87
5.61
15.12
23.34
29.44
33.02
34.02
32.65
29.32
24.76
19.92
15.78
13.09
12.09
12.48
13.59
14.68
15.21
14.92
13.81
12.07
9.96
7.88
6.28
5.64
6.34
8.5
11.94
16.17
20.55
24.52
27.64
29.71
30.64
30.46
29.28
27.27
24.63
21.61
18.34
14.77
10.78
6.32
1.51
-3.26
-7.43
-10.6
-12.65
-13.88
-14.83
-16.05
-17.88
-20.28
-23.01
-25.7
-28.03
-29.86
-31.15
-31.97
-32.4
-32.53
-32.43
-32.08
-31.43
-30.38
-28.8
-26.67
-24.02
-21.05
-18.0
-15.18
-12.85
-11.18
-10.18
-9.69
-9.42
-9.05
-8.34
-7.25
-5.96
-4.74
-3.8
-3.15
-2.55
-1.59
0.12
2.73
6.07
9.69
12.96
15.3
16.4
16.29
15.39
14.4
14.06
14.97
17.37
21.03
25.26
29.14
31.72
32.43
31.27
28.9
26.46
25.16
25.92
29.02
34.1
40.36
46.95
53.22
58.88
63.83
68.0
71.24
73.34
74.14
73.71
72.32
70.27
67.78
64.74
60.81
55.64
49.06
41.34
33.06
24.91
17.39
10.56
4.06
-2.63
-9.94
-17.92
-26.16
-33.94
-40.52
-45.35
-48.27
-49.56
-49.79
-49.63
-49.7
-50.37
-51.7
-53.49
-55.4
-57.17
-58.75
-60.33
-62.23
-64.75
-67.94
-71.57
-75.19
-78.27
-80.45
-81.66
-82.13
-82.34
-82.91
-84.47
-87.51
-92.21
-98.18
-104.34
-108.96
-110.08
-106.25
-97.11
-83.79
-68.63
-54.41
-43.45
-36.86
-34.48
-35.16
-37.48
-40.24
-42.67
-44.39
-45.17
-44.85
-43.25
-40.41
-36.62
-32.52
-28.85
-26.2
-24.64
-23.55
-21.74
-17.92
-11.34
-2.14
8.58
19.24
28.38
35.24
39.75
42.32
43.33
42.94
41.14
38.08
34.22
30.36
27.28
25.36
24.4
23.71
22.54
20.41
17.33
13.67
9.96
6.6
3.72
1.25
-0.99
-3.16
-5.29
-7.37
-9.31
-11.04
-12.52
-13.8
-14.96
-16.16
-17.6
-19.41
-21.68
-24.3
-27.0
-29.34
-30.8
-30.84
-29.09
-25.4
-19.98
-13.43
-6.61
-0.5
4.15
7.02
8.31
8.6
8.62
8.88
9.54
10.42
11.2
11.7
11.96
12.24
12.87
14.01
15.61
17.45
19.26
20.87
22.21
23.34
24.27
24.96
25.32
25.28
24.84
24.14
23.32
22.49
21.72
20.95
20.14
19.26
18.31
17.31
16.25
15.11
13.86
12.49
11.06
9.62
8.21
6.82
5.35
3.74
1.93
-0.09
-2.29
-4.64
-7.13
-9.76
-12.46
-15.18
-17.82
-20.38
-22.95
-25.72
-28.94
-32.74
-37.02
-41.35
-45.02
-47.2
-47.14
-44.49
-39.37
-32.39
-24.47
-16.53
-9.25
-2.97
2.36
6.96
11.11
15.01
18.71
22.21
25.44
28.35
30.89
33.08
34.97
36.66
38.33
40.15
42.29
44.81
47.69
50.83
54.04
57.14
59.94
62.32
64.19
65.6
66.64
67.51
68.39
69.46
70.78
72.32
73.84
75.02
75.5
74.99
73.41
70.86
67.66
64.17
60.72
57.53
54.73
52.4
50.61
49.41
48.8
48.66
48.77
48.78
48.29
46.92
44.35
40.4
35.06
28.47
20.88
12.55
3.7
-5.63
-15.47
-25.87
-36.65
-47.33
-57.05
-64.75
-69.47
-70.66
-68.39
-63.36
-56.63
-49.35
-42.44
-36.44
-31.52
-27.56
-24.32
-21.48
-18.76
-15.99
-13.15
-10.4
-8.01
-6.26
-5.28
-5.04
-5.38
-6.1
-7.06
-8.17
-9.37
-10.6
-11.75
-12.78
-13.69
-14.64
-15.85
-17.55
-19.86
-22.71
-25.9
-29.18
-32.38
-35.44
-38.45
-41.54
-44.82
-48.34
-52.06
-55.88
-59.59
-62.92
-65.42
-66.5
-65.48
-61.79
-55.25
-46.27
-35.88
-25.52
-16.7
-10.48
-7.27
-6.77
-8.23
-10.74
-13.58
-16.31
-18.76
-20.8
-22.28
-22.93
-22.42
-20.46
-16.86
-11.54
-4.46
4.46
15.25
27.92
42.28
57.89
74.05
89.97
104.9
118.33
130.03
139.95
148.05
154.21
158.19
159.73
158.75
155.41
150.15
143.5
135.92
127.61
118.52
108.41
97.1
84.65
71.44
58.17
45.55
34.12
24.06
15.17
7.07
-0.55
-7.83
-14.76
-21.28
-27.48
-33.54
-39.59
-45.55
-51.03
-55.47
-58.37
-59.51
-59.02
-57.31
-54.88
-52.17
-49.51
-47.15
-45.27
-43.99
-43.35
-43.37
-44.02
-45.28
-47.13
-49.51
-52.23
-54.98
-57.43
-59.33
-60.63
-61.44
-61.97
-62.39
-62.82
-63.29
-63.81
-64.39
-64.95
-65.23
-64.82
-63.22
-60.03
-55.14
-48.81
-41.63
-34.33
-27.51
-21.51
-16.27
-11.47
-6.69
-1.56
4.06
10.06
16.17
22.06
27.36
31.79
35.11
37.2
38.13
38.23
38.18
38.81
40.95
45.09
51.19
58.62
66.38
73.43
79.01
82.76
84.75
85.28
84.74
83.54
82.12
80.9
80.27
80.45
81.34
82.52
83.41
83.46
82.41
80.31
77.41
73.99
70.19
66.02
61.43
56.46
51.29
46.23
41.52
37.24
33.17
28.88
23.81
17.53
9.95
1.27
-8.03
-17.44
-26.69
-35.76
-44.9
-54.38
-64.24
-74.03
-82.78
-89.19
-92.01
-90.51
-84.89
-76.29
-66.51
-57.38
-50.21
-45.42
-42.56
-40.75
-39.16
-37.42
-35.66
-34.36
-33.95
-34.6
-36.08
-37.89
-39.4
-40.13
-39.85
-38.65
-36.81
-34.66
-32.42
-30.15
-27.77
-25.19
-22.44
-19.7
-17.24
-15.33
-14.11
-13.5
-13.29
-13.23
-13.15
-12.99
-12.88
-13.04
-13.69
-15.02
-17.12
-20.02
-23.67
-27.99
-32.84
-37.97
-43.06
-47.75
-51.77
-55.03
-57.68
-60.05
-62.51
-65.2
-67.95
-70.27
-71.46
-70.85
-68.08
-63.2
-56.83
-49.98
-43.83
-39.29
-36.72
-35.69
-35.19
-33.91
-30.78
-25.29
-17.63
-8.58
0.81
9.5
16.69
21.91
25.02
26.18
25.74
24.12
21.76
19.04
16.24
13.67
11.62
10.39
10.17
11.03
12.8
15.2
17.89
20.65
23.41
26.12
28.71
30.96
32.52
33.08
32.43
30.63
27.89
24.56
20.95
17.3
13.79
10.61
7.92
5.91
4.71
4.28
4.47
4.96
5.45
5.72
5.7
5.48
5.28
5.28
5.61
6.26
7.1
7.99
8.74
9.28
9.58
9.68
9.61
9.46
9.25
9.04
8.9
8.89
9.06
9.39
9.79
10.16
10.39
10.45
10.39
10.36
10.5
10.87
11.47
12.22
13.0
13.68
14.15
14.31
14.13
13.63
12.89
12.04
11.21
10.47
9.84
9.22
8.48
7.53
6.35
5.01
3.63
2.29
1.01
-0.27
-1.63
-3.09
-4.67
-6.33
-8.05
-9.82
-11.63
-13.41
-15.05
-16.37
-17.25
-17.68
-17.79
-17.82
-18.01
-18.58
-19.57
-20.9
-22.42
-23.92
-25.26
-26.35
-27.27
-28.21
-29.5
-31.47
-34.29
-37.85
-41.6
-44.67
-46.08
-45.05
-41.27
-35.02
-27.07
-18.44
-10.11
-2.79
3.15
7.68
10.95
13.29
14.99
16.36
17.63
18.9
20.15
21.25
22.04
22.41
22.4
22.11
21.78
21.61
21.75
22.21
22.91
23.69
24.39
24.87
25.06
24.91
24.41
23.58
22.5
21.29
20.08
18.96
17.96
17.06
16.18
15.24
14.23
13.15
12.01
10.8
9.5
8.11
6.66
5.17
3.7
2.24
0.78
-0.73
-2.31
-3.95
-5.67
-7.42
-9.19
-10.99
-12.8
-14.66
-16.63
-18.79
-21.18
-23.75
-26.23
-28.17
-28.99
-28.19
-25.48
-20.97
-15.12
-8.66
-2.36
3.17
7.62
11.01
13.56
15.53
17.08
18.21
18.84
18.92
18.53
17.89
17.34
17.2
17.59
18.47
19.64
20.85
21.91
22.74
23.32
23.68
23.79
23.61
23.05
22.11
20.85
19.39
17.89
16.44
15.11
13.86
12.63
11.32
9.88
8.29
6.62
4.94
3.37
1.96
0.72
-0.36
-1.35
-2.3
-3.28
-4.42
-5.83
-7.6
-9.68
-11.92
-14.08
-15.96
-17.53
-18.94
-20.46
-22.38
-24.82
-27.72
-30.81
-33.65
-35.69
-36.36
-35.26
-32.22
-27.42
-21.39
-14.88
-8.64
-3.25
1.0
4.19
6.59
8.61
10.61
12.78
15.07
17.22
18.92
19.95
20.35
20.35
20.29
20.44
20.89
21.55
22.28
22.97
23.57
24.06
24.42
24.53
24.31
23.69
22.7
21.41
19.92
18.32
16.67
15.05
13.57
12.29
11.25
10.42
9.7
9.0
8.23
7.36
6.36
5.21
3.93
2.51
1.02
-0.49
-2.0
-3.48
-4.97
-6.47
-7.99
-9.52
-11.03
-12.54
-14.06
-15.65
-17.36
-19.26
-21.41
-23.79
-26.19
-28.23
-29.37
-29.1
-27.12
-23.49
-18.67
-13.31
-8.11
-3.52
0.29
3.43
6.1
8.47
10.6
12.45
13.9
14.9
15.47
15.75
15.88
16.0
16.14
16.24
16.27
16.2
16.11
16.12
16.34
16.75
17.25
17.62
17.68
17.29
16.5
15.43
14.27
13.2
12.37
11.82
11.47
11.2
10.86
10.35
9.68
8.97
8.35
7.88
7.54
7.2
6.74
6.08
5.21
4.16
2.96
1.57
-0.09
-2.02
-4.18
-6.4
-8.49
-10.36
-12.0
-13.5
-15.01
-16.64
-18.45
-20.35
-22.19
-23.71
-24.61
-24.6
-23.45
-21.11
-17.75
-13.72
-9.49
-5.53
-2.16
0.52
2.57
4.16
5.39
6.3
6.85
7.02
6.87
6.61
6.43
6.5
6.86
7.42
8.07
8.7
9.26
9.75
10.13
10.35
10.37
10.15
9.71
9.1
8.4
7.66
6.97
6.37
5.94
5.71
5.63
5.64
5.6
5.42
5.05
4.47
3.76
2.96
2.16
1.42
0.79
0.25
-0.27
-0.9
-1.7
-2.67
-3.73
-4.68
-5.4
-5.82
-6.02
-6.22
-6.62
-7.37
-8.49
-9.86
-11.3
-12.63
-13.81
-14.85
-15.88
-16.99
-18.23
-19.58
-20.93
-22.11
-22.87
-22.92
-22.0
-19.94
-16.82
-12.92
-8.71
-4.69
-1.2
1.6
3.79
5.6
7.22
8.8
10.35
11.83
13.15
14.2
14.87
15.09
14.88
14.36
13.73
13.23
12.99
13.04
13.26
13.48
13.51
13.22
12.56
11.54
10.25
8.86
7.47
6.23
5.19
4.34
3.63
3.01
2.43
1.88
1.4
1.01
0.72
0.52
0.4
0.3
0.18
-0.05
-0.43
-0.94
-1.49
-1.99
-2.34
-2.53
-2.62
-2.73
-2.93
-3.3
-3.84
-4.52
-5.27
-6.03
-6.73
-7.29
-7.72
-8.06
-8.42
-8.89
-9.52
-10.31
-11.2
-12.11
-12.99
-13.82
-14.63
-15.47
-16.42
-17.57
-18.9
-20.31
-21.52
-22.14
-21.81
-20.32
-17.72
-14.29
-10.46
-6.59
-2.97
0.28
3.11
5.5
7.45
9.04
10.42
11.76
13.18
14.63
15.9
16.74
16.99
16.73
16.29
16.13
16.71
18.32
21.0
24.55
28.51
32.26
35.06
36.29
35.63
33.17
29.51
25.59
22.33
20.41
19.99
20.87
22.58
24.6
26.54
28.13
29.2
29.64
29.35
28.26
26.35
23.6
20.02
15.58
10.25
4.06
-2.92
-10.55
-18.6
-26.8
-34.85
-42.41
-49.08
-54.53
-58.48
-60.85
-61.75
-61.51
-60.49
-58.97
-57.06
-54.71
-51.84
-48.48
-44.86
-41.39
-38.6
-36.89
-36.46
-37.16
-38.54
-39.98
-40.78
-40.34
-38.32
-34.65
-29.61
-23.73
-17.67
-12.12
-7.58
-4.27
-2.06
-0.59
0.62
1.9
3.4
5.01
6.56
7.81
8.67
9.08
9.01
8.47
7.49
6.21
4.87
3.7
2.87
2.32
1.8
0.96
-0.46
-2.52
-5.06
-7.72
-10.11
-11.92
-12.96
-13.16
-12.53
-11.14
-9.09
-6.57
-3.87
-1.3
0.87
2.44
3.31
3.45
2.89
1.7
0.02
-1.87
-3.66
-5.05
-5.91
-6.3
-6.47
-6.73
-7.29
-8.18
-9.2
-9.93
-9.9
-8.66
-6.03
-2.06
2.88
8.28
13.69
18.86
23.83
28.93
34.59
41.04
48.23
55.69
62.7
68.46
72.38
74.23
74.26
73.12
71.61
70.51
70.31
71.16
72.88
75.11
77.44
79.64
81.64
83.62
85.83
88.52
91.79
95.53
99.48
103.2
106.17
107.77
107.41
104.63
99.21
91.26
81.25
69.87
57.88
45.95
34.49
23.6
13.11
2.7
-8.01
-19.21
-30.91
-42.85
-54.55
-65.51
-75.32
-83.76
-90.86
-96.85
-102.09
-107.0
-111.96
-117.19
-122.73
-128.38
-133.84
-138.81
-143.18
-147.02
-150.52
-153.83
-156.86
-159.16
-160.07
-158.97
-155.59
-150.18
-143.41
-136.19
-129.28
-123.04
-117.37
-111.74
-105.42
-97.6
-87.63
-75.24
-60.74
-45.12
-29.84
-16.53
-6.4
0.14
3.54
4.9
5.53
6.52
8.55
11.85
16.33
21.66
27.37
32.91
37.74
41.49
44.1
45.87
47.28
48.79
50.57
52.44
53.94
54.55
53.97
52.24
49.69
46.8
43.97
41.47
39.37
37.66
36.23
34.92
33.4
31.32
28.37
24.51
20.07
15.67
12.0
9.57
8.47
8.42
8.9
9.38
9.51
9.16
8.38
7.28
5.94
4.42
2.71
0.86
-1.08
-2.94
-4.55
-5.75
-6.45
-6.69
-6.61
-6.42
-6.27
-6.27
-6.41
-6.59
-6.76
-6.87
-7.02
-7.37
-8.17
-9.63
-11.9
-14.95
-18.63
-22.68
-26.8
-30.71
-34.06
-36.48
-37.49
-36.7
-33.89
-29.23
-23.28
-16.87
-10.83
-5.74
-1.72
1.47
4.28
7.12
10.16
13.36
16.47
19.27
21.58
23.37
24.73
25.78
26.63
27.33
27.87
28.25
28.53
28.82
29.22
29.72
30.19
30.38
30.08
29.19
27.88
26.38
24.99
23.83
22.85
21.86
20.68
19.2
17.42
15.42
13.28
11.1
8.99
7.05
5.4
4.07
3.01
2.09
1.16
0.14
-0.97
-2.07
-3.05
-3.9
-4.75
-5.75
-7.04
-8.63
-10.4
-12.14
-13.72
-15.13
-16.51
-18.12
-20.18
-22.78
-25.78
-28.75
-31.04
-31.95
-30.94
-27.79
-22.65
-16.09
-8.83
-1.54
5.27
11.37
16.72
21.39
25.41
28.77
31.37
33.13
34.0
34.03
33.39
32.35
31.19
30.18
29.51
29.28
29.52
30.18
31.12
32.13
32.97
33.45
33.49
33.14
32.53
31.79
30.95
29.97
28.74
27.23
25.51
23.72
22.05
20.57
19.27
18.05
16.8
15.51
14.19
12.89
11.62
10.31
8.83
7.09
5.09
2.88
0.61
-1.6
-3.69
-5.64
-7.48
-9.28
-11.11
-13.08
-15.3
-17.84
-20.74
-23.84
-26.81
-29.17
-30.41
-30.13
-28.14
-24.6
-19.9
-14.56
-9.12
-3.96
0.68
4.73
8.19
11.09
13.42
15.15
16.27
16.75
16.69
16.21
15.53
14.91
14.57
14.69
15.3
16.33
17.6
18.86
19.91
20.6
20.87
20.73
20.2
19.35
18.23
16.92
15.54
14.21
13.02
12.03
11.24
10.57
9.92
9.16
8.23
7.14
5.98
4.9
3.99
3.29
2.65
1.9
0.88
-0.45
-1.99
-3.59
-5.1
-6.51
-7.87
-9.29
-10.86
-12.58
-14.39
-16.1
-17.48
-18.25
-18.16
-17.07
-15.01
-12.19
-9.0
-5.87
-3.12
-0.92
0.8
2.21
3.47
4.65
5.64
6.25
6.29
5.77
4.89
4.06
3.69
4.04
5.1
6.64
8.3
9.76
10.8
11.33
11.3
10.69
9.48
7.76
5.68
3.5
1.47
-0.25
-1.64
-2.81
-3.9
-4.98
-6.04
-6.99
-7.74
-8.28
-8.69
-9.05
-9.46
-9.97
-10.58
-11.28
-12.07
-12.97
-13.99
-15.15
-16.4
-17.67
-18.93
-20.18
-21.53
-23.14
-25.13
-27.47
-29.89
-31.88
-32.82
-32.19
-29.78
-25.78
-20.75
-15.39
-10.35
-6.02
-2.5
0.35
2.74
4.87
6.79
8.47
9.86
10.93
11.69
12.23
12.63
12.95
13.23
13.47
13.71
14.01
14.42
14.98
15.62
16.2
16.51
16.38
15.78
14.77
13.54
12.27
11.13
10.15
9.3
8.5
7.68
6.8
5.88
4.93
3.93
2.84
1.59
0.13
-1.5
-3.26
-5.05
-6.81
-8.5
-10.12
-11.67
-13.17
-14.66
-16.16
-17.65
-19.04
-20.08
-20.48
-19.95
-18.36
-15.79
-12.49
-8.82
-5.1
-1.57
1.62
4.35
6.56
8.19
9.28
9.92
10.24
10.34
10.26
10.01
9.59
9.02
8.41
7.83
7.37
7.05
6.84
6.7
6.54
6.27
5.72
4.74
3.14
0.83
-2.2
-5.84
-9.82
-13.87
-17.69
-21.02
-23.71
-25.64
-26.72
-26.87
-25.99
-23.98
-20.75
-16.21
-10.39
-3.48
4.04
11.44
17.88
22.69
25.59
26.73
26.59
25.66
24.17
22.09
19.25
15.69
11.79
8.23
5.66
4.43
4.44
5.22
6.24
7.26
8.38
9.89
11.98
14.48
16.83
18.3
18.36
16.93
14.47
11.72
9.44
8.1
7.75
8.06
8.54
8.68
8.16
6.9
5.13
3.31
2.01
1.76
2.88
5.37
8.87
12.75
16.22
18.64
19.64
19.23
17.73
15.58
13.09
10.25
6.87
2.73
-2.22
-7.74
-13.53
-19.46
-25.73
-32.81
-41.2
-51.08
-62.07
-73.31
-83.6
-91.61
-96.04
-95.66
-89.59
-77.56
-60.33
-39.83
-18.83
-0.17
14.06
23.11
27.65
29.17
29.22
28.86
28.46
27.93
27.18
26.36
25.78
25.63
25.79
25.78
24.96
22.9
19.61
15.6
11.65
8.48
6.47
5.51
5.12
4.73
3.93
2.64
1.08
-0.34
-1.36
-1.91
-2.23
-2.67
-3.51
-4.81
-6.36
-7.8
-8.77
-9.11
-8.96
-8.59
-8.34
-8.41
-8.79
-9.33
-9.84
-10.17
-10.32
-10.37
-10.44
-10.69
-11.19
-12.0
-13.13
-14.47
-15.81
-16.84
-17.28
-16.89
-15.59
-13.44
-10.62
-7.37
-3.97
-0.72
2.15
4.48
6.24
7.51
8.36
8.86
8.99
8.72
8.07
7.21
6.36
5.8
5.69
6.08
6.87
7.84
8.79
9.55
10.02
10.14
9.86
9.16
8.04
6.49
4.63
2.61
0.64
-1.05
-2.35
-3.21
-3.72
-4.02
-4.22
-4.37
-4.46
-4.48
-4.45
-4.47
-4.67
-5.13
-5.9
-6.9
-8.0
-9.08
-10.06
-10.92
-11.75
-12.66
-13.74
-15.02
-16.39
-17.63
-18.39
-18.32
-17.18
-14.93
-11.77
-8.09
-4.31
-0.82
2.15
4.49
6.21
7.4
8.16
8.62
8.88
9.04
9.09
9.02
8.77
8.39
7.99
7.75
7.87
8.4
9.28
10.28
11.14
11.67
11.78
11.54
11.08
10.54
10.02
9.55
9.12
8.7
8.27
7.76
7.17
6.44
5.57
