BVP
-2.66
-5.2
-8.13
-11.53
-15.37
-19.51
-23.84
-28.36
-33.33
-39.22
-46.43
-54.94
-64.04
-72.25
-77.65
-78.37
-73.24
-62.16
-46.18
-27.19
-7.41
11.16
27.03
39.44
48.14
53.28
55.17
54.24
51.1
46.49
41.27
36.15
31.63
27.86
24.73
21.99
19.43
16.93
14.46
11.96
9.35
6.47
3.16
-0.64
-4.92
-9.54
-14.36
-19.31
-24.49
-30.18
-36.69
-44.24
-52.67
-61.25
-68.73
-73.52
-74.17
-69.7
-60.03
-45.98
-29.09
-11.2
5.94
21.04
33.28
42.3
48.04
50.64
50.51
48.3
44.92
41.38
38.53
36.9
36.57
37.31
38.79
40.7
42.84
45.06
47.1
48.63
49.29
48.83
47.19
44.53
41.05
37.0
32.49
27.53
22.03
15.87
8.91
1.19
-6.92
-14.52
-20.25
-22.51
-19.95
-11.97
1.02
17.58
35.7
53.33
68.86
81.34
90.41
96.03
98.23
97.0
92.39
84.69
74.52
62.93
51.23
40.67
32.17
26.11
22.19
19.67
17.65
15.37
12.41
8.77
4.76
0.8
-2.76
-5.75
-8.27
-10.78
-14.14
-19.49
-27.92
-40.03
-55.42
-72.47
-88.64
-101.06
-107.45
-106.79
-99.55
-87.45
-72.78
-57.72
-43.92
-32.45
-23.97
-18.93
-17.61
-19.91
-25.31
-32.77
-40.91
-48.37
-54.16
-57.8
-59.28
-58.93
-57.15
-54.24
-50.49
-46.15
-41.48
-36.88
-32.75
-29.5
-27.38
-26.55
-27.05
-28.9
-32.13
-36.69
-42.21
-47.85
-52.27
-53.86
-51.21
-43.65
-31.47
-15.92
1.21
18.13
33.49
46.5
56.81
64.27
68.76
70.19
68.61
64.45
58.44
51.54
44.66
38.43
33.06
28.41
24.08
19.71
15.12
10.34
5.65
1.37
-2.29
-5.37
-8.2
-11.22
-14.96
-19.83
-25.98
-33.34
-41.48
-49.59
-56.5
-60.83
-61.22
-56.81
-47.5
-34.1
-18.11
-1.33
14.62
28.58
39.84
48.06
52.98
54.46
52.5
47.53
40.5
32.78
25.81
20.7
17.86
16.98
17.21
17.58
17.39
16.43
14.83
12.93
10.94
8.84
6.43
3.41
-0.48
-5.45
-11.65
-19.13
-27.67
-36.63
-44.75
-50.35
-51.76
-47.86
-38.56
-24.88
-8.71
7.83
22.85
34.94
43.22
47.15
46.48
41.3
32.14
20.09
6.57
-6.9
-19.1
-29.31
-37.4
-43.68
-48.66
-52.78
-56.32
-59.27
-61.47
-62.79
-63.31
-63.46
-63.89
-65.37
-68.49
-73.38
-79.66
-86.43
-92.37
-96.1
-96.3
-92.08
-83.07
-69.57
-52.44
-32.89
-12.23
8.47
28.44
47.12
64.0
78.39
89.4
95.98
97.25
92.73
82.69
68.16
50.72
32.2
14.19
-2.26
-16.71
-29.2
-40.0
-49.39
-57.5
-64.39
-70.18
-75.08
-79.39
-83.48
-87.62
-92.0
-96.44
-100.41
-102.76
-101.93
-96.23
-84.37
-65.93
-41.68
-13.43
16.36
45.17
70.75
91.37
105.7
112.84
112.39
104.75
91.22
73.97
55.52
38.12
23.13
10.83
0.68
-8.14
-16.13
-23.26
-29.0
-32.81
-34.52
-34.53
-33.78
-33.44
-34.6
-37.85
-43.13
-49.62
-55.86
-60.02
-60.43
-55.94
-46.38
-32.51
-15.81
1.94
19.16
34.68
47.78
58.03
65.19
69.07
69.75
67.59
63.37
58.12
52.8
48.04
44.0
40.44
36.94
33.27
29.45
25.74
22.5
19.84
17.58
15.17
11.86
6.84
-0.43
-10.03
-21.36
-33.17
-43.56
-50.52
-52.27
-47.85
-37.26
-21.5
-2.25
18.57
39.13
57.86
73.57
85.34
92.56
95.01
92.97
87.24
79.04
69.69
60.35
51.66
43.77
36.43
29.39
22.64
16.46
11.32
7.62
5.37
4.07
2.8
0.48
-3.92
-11.03
-20.85
-32.58
-44.7
-55.16
-61.87
-63.26
-58.65
-48.4
-33.65
-15.9
3.34
22.77
41.31
57.89
71.42
81.0
86.17
87.08
84.55
79.81
74.04
68.03
62.04
55.96
49.53
42.58
35.26
27.88
20.84
14.41
8.63
3.31
-1.97
-7.68
-14.12
-21.19
-28.26
-34.12
-37.32
-36.69
-31.77
-23.09
-12.0
-0.21
10.74
19.97
27.23
32.72
36.84
39.89
42.05
43.42
44.05
43.98
43.09
41.28
38.48
34.83
30.69
26.62
23.16
20.58
18.86
17.68
16.62
15.2
12.96
9.44
4.13
-3.36
-13.11
-24.55
-36.32
-46.39
-52.5
-52.8
-46.51
-34.12
-17.21
2.03
21.45
39.41
54.86
67.21
76.12
81.39
82.94
81.08
76.43
69.98
62.72
55.51
48.81
42.65
36.82
31.05
25.24
19.48
14.01
9.01
4.49
0.15
-4.51
-10.03
-16.87
-25.17
-34.64
-44.44
-53.23
-59.38
-61.36
-58.17
-49.76
-36.98
-21.39
-4.86
10.91
24.63
35.46
42.92
46.8
47.19
44.5
39.51
33.29
26.84
20.92
15.84
11.48
7.58
3.87
0.31
-3.0
-5.89
-8.3
-10.31
-12.17
-14.26
-16.94
-20.53
-25.23
-30.92
-37.03
-42.49
-45.87
-45.84
-41.56
-33.01
-21.04
-7.11
7.15
20.32
31.38
39.74
45.21
47.83
47.91
45.94
42.59
38.55
34.45
30.75
27.64
25.16
23.21
21.74
20.71
20.17
20.13
20.55
21.22
21.97
22.62
23.05
23.29
23.4
23.62
24.38
26.33
30.25
36.62
45.3
55.37
65.15
72.78
76.76
76.43
71.93
63.9
53.01
39.76
24.52
7.89
-9.22
-25.56
-39.96
-51.62
-60.3
-66.21
-69.68
-71.02
-70.38
-67.87
-63.71
-58.34
-52.37
-46.58
-41.66
-38.17
-36.34
-35.97
-36.39
-36.5
-35.05
-30.99
-23.81
-13.7
-1.52
11.51
24.05
35.01
43.56
49.16
51.45
50.25
45.68
38.21
28.73
18.44
8.54
-0.03
-6.8
-11.93
-16.04
-20.07
-25.0
-31.54
-39.84
-49.39
-59.18
-68.09
-75.37
-80.97
-85.39
-89.24
-92.66
-95.03
-95.25
-92.24
-85.54
-75.57
-63.46
-50.67
-38.44
-27.62
-18.69
-11.89
-7.33
-5.01
-4.75
-6.12
-8.52
-11.29
-13.81
-15.63
-16.52
-16.52
-15.88
-15.01
-14.33
-14.12
-14.42
-15.17
-16.27
-17.72
-19.61
-22.12
-25.29
-28.94
-32.55
-35.38
-36.49
-35.05
-30.6
-23.2
-13.6
-2.99
7.23
15.91
22.39
26.53
28.53
28.72
27.42
24.92
21.59
17.88
14.27
11.08
8.44
6.19
4.08
1.89
-0.49
-2.98
-5.42
-7.66
-9.63
-11.45
-13.35
-15.65
-18.52
-21.89
-25.26
-27.85
-28.74
-27.23
-23.08
-16.6
-8.55
0.09
8.27
15.15
20.11
22.87
23.43
22.04
19.19
15.42
11.28
7.22
3.52
0.29
-2.5
-4.99
-7.34
-9.64
-11.84
-13.77
-15.28
-16.34
-17.23
-18.39
-20.4
-23.55
-27.73
-32.18
-35.77
-37.2
-35.57
-30.6
-22.8
-13.23
-3.17
6.19
14.0
19.75
23.19
24.23
22.99
19.81
15.3
10.27
5.53
1.72
-0.92
-2.55
-3.64
-4.68
-6.04
-7.81
-9.9
-12.13
-14.43
-16.85
-19.66
-23.08
-27.26
-31.92
-36.43
-39.78
-40.93
-39.11
-34.14
-26.48
-17.06
-7.04
2.55
10.95
17.71
22.56
25.43
26.34
25.5
23.29
20.17
16.6
12.92
9.34
6.0
2.96
0.31
-2.0
-4.02
-5.87
-7.72
-9.67
-11.86
-14.5
-17.75
-21.71
-26.2
-30.64
-34.1
-35.54
-34.18
-29.75
-22.63
-13.7
-4.01
5.43
13.89
20.85
25.94
28.96
29.88
28.92
26.51
23.24
19.64
16.08
12.69
9.48
6.48
3.8
1.6
-0.08
-1.41
-2.74
-4.51
-7.08
-10.59
-15.06
-20.32
-26.03
-31.61
-36.21
-38.83
-38.55
-34.88
-28.0
-18.73
-8.33
1.9
11.01
18.37
23.7
26.93
28.08
27.34
25.08
21.91
18.44
15.18
12.35
9.92
7.68
5.4
3.01
0.59
-1.67
-3.65
-5.36
-7.0
-8.91
-11.47
-14.98
-19.42
-24.39
-29.05
-32.32
-33.07
-30.56
-24.62
-15.75
-5.01
6.23
16.57
24.81
30.16
32.4
31.86
29.39
26.11
23.04
20.85
19.57
18.76
17.72
15.99
13.59
11.11
9.41
9.15
10.35
12.22
13.44
12.68
9.26
3.39
-3.83
-10.82
-16.07
-18.28
-16.44
-9.93
1.35
16.78
34.71
52.96
69.75
84.84
99.95
117.81
140.22
166.36
192.26
212.19
221.18
217.06
201.0
176.15
145.47
110.37
70.8
26.76
-20.06
-65.68
-104.93
-133.4
-149.43
-154.74
-153.62
-151.01
-150.55
-153.32
-157.59
-160.01
-157.43
-148.4
-134.17
-118.19
-104.47
-95.76
-92.11
-90.97
-88.72
-82.59
-72.22
-59.82
-48.97
-42.62
-41.62
-44.36
-47.78
-48.61
-44.3
-33.28
-14.69
11.62
44.88
83.02
122.59
159.47
190.03
212.17
225.68
231.39
229.98
220.81
202.1
172.21
131.36
82.95
33.13
-11.08
-44.44
-65.48
-76.71
-82.97
-88.64
-95.41
-101.94
-105.29
-103.24
-95.86
-85.58
-75.6
-68.16
-63.42
-59.85
-55.59
-49.78
-43.07
-37.21
-33.86
-33.64
-35.82
-38.65
-40.35
-39.83
-37.21
-33.67
-30.96
-30.63
-33.34
-38.53
-44.56
-49.32
-50.99
-48.67
-42.6
-33.92
-24.1
-14.4
-5.62
1.91
8.11
12.84
15.88
17.02
16.21
13.81
10.45
7.01
4.22
2.46
1.66
1.37
0.99
0.13
-1.26
-2.89
-4.35
-5.38
-6.08
-6.84
-8.25
-10.79
-14.71
-19.99
-26.27
-32.94
-39.09
-43.62
-45.4
-43.61
-38.05
-29.21
-18.18
-6.29
5.31
15.89
25.08
32.7
38.59
42.46
44.14
43.68
41.44
38.1
34.35
30.8
27.74
25.29
23.32
21.66
20.1
18.45
16.61
14.54
12.27
9.81
7.11
4.06
0.56
-3.43
-7.82
-12.46
-17.25
-22.16
-27.15
-31.93
-35.84
-37.85
-36.88
-32.27
-24.08
-13.17
-0.92
11.16
21.91
30.62
37.05
41.3
43.54
44.01
42.93
40.61
37.49
34.09
30.95
28.45
26.71
25.58
24.72
23.73
22.33
20.42
18.1
15.56
12.94
10.32
7.66
4.89
1.97
-1.08
-4.2
-7.4
-10.81
-14.66
-19.16
-24.26
-29.51
-33.96
-36.42
-35.89
-31.88
-24.66
-15.18
-4.69
5.58
14.71
22.13
27.62
31.17
32.93
33.2
32.36
30.88
29.11
27.35
25.79
24.57
23.71
23.23
23.02
22.91
22.7
22.23
21.43
20.22
18.56
16.3
13.39
9.83
5.82
1.68
-2.28
-5.91
-9.29
-12.74
-16.72
-21.52
-27.07
-32.78
-37.61
-40.23
-39.5
-34.9
-26.72
-16.07
-4.44
6.75
16.61
24.94
32.04
38.28
43.8
48.34
51.31
52.19
50.93
48.14
45.08
43.28
43.99
47.57
53.19
59.1
63.29
64.43
62.48
58.87
55.89
55.61
59.04
65.87
74.64
83.54
91.22
96.89
100.15
100.82
99.4
97.56
98.18
104.39
117.66
136.18
154.79
166.81
167.16
154.86
133.38
108.54
85.11
64.38
43.94
19.75
-10.82
-47.05
-84.97
-119.26
-145.74
-162.78
-171.32
-173.77
-172.52
-168.77
-162.55
-153.39
-141.21
-126.8
-111.7
-97.5
-85.09
-74.33
-64.35
-54.23
-43.68
-33.26
-24.03
-16.8
-11.58
-7.65
-3.67
1.78
9.56
19.98
32.65
46.23
58.36
66.35
68.44
65.33
60.49
58.88
64.35
77.18
93.25
105.62
107.75
96.29
72.17
39.47
3.11
-32.92
-66.03
-94.64
-117.34
-132.94
-141.09
-142.76
-140.17
-135.88
-131.71
-128.5
-126.27
-124.36
-122.04
-118.66
-113.72
-107.03
-98.96
-90.46
-82.76
-76.8
-72.76
-70.18
-68.36
-66.86
-65.86
-65.91
-67.43
-70.16
-73.05
-74.59
-73.48
-69.2
-62.02
-52.88
-42.8
-32.54
-22.53
-13.03
-4.38
2.97
8.53
12.12
13.93
14.59
14.86
15.32
16.22
17.41
18.55
19.25
19.37
18.95
18.13
17.03
15.63
13.84
11.53
8.71
5.48
2.07
-1.35
-4.69
-8.07
-11.7
-15.71
-19.99
-24.03
-27.0
-27.99
-26.34
-21.93
-15.19
-6.99
1.72
10.13
17.73
24.3
29.67
33.67
36.14
37.04
36.54
35.06
33.16
31.33
29.82
28.7
27.87
27.19
26.52
25.81
25.02
24.04
22.76
21.09
19.01
16.54
13.75
10.71
7.34
3.55
-0.73
-5.56
-10.84
-16.32
-21.59
-26.03
-28.91
-29.48
-27.18
-21.87
-14.0
-4.48
5.52
14.93
23.03
29.46
34.2
37.3
38.77
38.64
37.04
34.24
30.73
27.08
23.76
21.03
18.84
16.95
15.01
12.82
10.33
7.71
5.14
2.73
0.51
-1.67
-3.94
-6.43
-9.19
-12.28
-15.72
-19.53
-23.64
-27.75
-31.29
-33.45
-33.42
-30.65
-25.18
-17.62
-8.98
-0.31
7.55
14.19
19.45
23.25
25.46
25.87
24.43
21.42
17.45
13.34
9.74
7.0
4.96
3.16
1.15
-1.29
-4.08
-6.92
-9.49
-11.63
-13.43
-15.14
-17.04
-19.39
-22.32
-25.9
-30.15
-35.06
-40.46
-45.9
-50.69
-54.04
-55.35
-54.43
-51.62
-47.6
-43.16
-38.82
-34.73
-30.63
-26.13
-20.78
-14.31
-6.61
2.16
11.57
20.85
28.96
34.73
37.42
37.02
34.6
32.04
31.54
34.93
43.17
56.1
72.53
90.5
107.64
121.47
129.9
131.76
127.14
117.33
104.35
90.11
75.84
61.89
48.17
34.76
22.21
11.3
2.57
-4.09
-9.47
-14.42
-19.45
-24.3
-28.26
-30.64
-31.23
-30.48
-29.16
-28.1
-27.82
-28.53
-30.15
-32.55
-35.7
-39.6
-44.39
-50.19
-57.25
-65.82
-76.12
-88.34
-102.5
-118.38
-135.51
-153.08
-169.94
-184.73
-196.0
-202.43
-203.13
-197.88
-187.25
-172.57
-155.57
-138.0
-121.29
-106.21
-93.07
-81.75
-72.11
-64.03
-57.48
-52.43
-48.76
-46.29
-44.71
-43.7
-42.84
-41.58
-39.18
-34.87
-28.13
-18.85
-7.63
4.46
16.07
26.1
33.92
39.4
42.77
44.29
44.25
42.96
41.02
39.33
38.99
40.83
45.12
51.35
58.52
65.54
71.62
76.39
79.77
81.73
82.11
80.76
77.66
73.11
67.74
62.4
58.06
55.58
55.62
58.38
63.48
69.89
76.08
80.34
81.29
78.26
71.4
61.65
50.33
38.88
28.55
20.12
13.93
9.77
7.15
5.58
4.85
5.2
7.23
11.58
18.54
27.86
38.61
49.44
58.93
65.94
69.83
70.54
68.48
64.35
58.94
53.0
47.11
41.62
36.72
32.43
28.67
25.3
22.11
18.87
15.34
11.34
6.8
1.66
-4.2
-10.98
-18.97
-28.32
-38.74
-49.3
-58.44
-64.4
-65.73
-61.78
-52.97
-40.49
-25.84
-10.3
5.25
20.25
34.15
46.32
56.15
63.33
68.22
71.76
75.12
79.16
83.91
88.56
91.87
92.72
90.68
86.13
80.08
73.65
67.61
62.2
57.19
52.13
46.5
39.99
32.6
24.75
17.35
11.77
9.61
12.29
20.69
34.75
53.54
75.46
98.67
121.38
142.15
159.87
173.72
183.2
188.0
188.14
183.9
175.83
164.58
150.77
134.86
117.08
97.45
75.9
52.41
27.15
0.64
-26.26
-52.41
-76.63
-97.87
-115.57
-129.73
-140.85
-149.59
-156.35
-160.88
-162.33
-159.57
-151.78
-138.94
-121.99
-102.49
-82.21
-62.6
-44.58
-28.65
-15.12
-4.35
3.33
7.81
9.41
8.96
7.63
6.51
6.28
6.91
7.8
8.13
7.19
4.77
1.21
-2.82
-6.67
-10.0
-12.91
-15.87
-19.5
-24.33
-30.56
-37.93
-45.61
-52.32
-56.52
-56.8
-52.33
-43.08
-29.95
-14.43
1.81
17.33
31.15
42.69
51.64
57.77
60.94
61.2
58.93
54.81
49.76
44.65
40.05
36.16
32.75
29.44
25.89
21.95
17.72
13.43
9.27
5.41
1.86
-1.42
-4.59
-7.97
-12.04
-17.29
-24.0
-31.94
-40.19
-47.24
-51.36
-51.18
-46.09
-36.49
-23.51
-8.67
6.57
21.11
34.18
45.25
53.9
59.75
62.48
62.04
58.7
53.13
46.2
38.87
31.9
25.74
20.4
15.65
11.16
6.67
2.14
-2.31
-6.57
-10.6
-14.58
-18.75
-23.37
-28.64
-34.61
-41.38
-49.06
-57.74
-67.32
-77.19
-86.22
-92.78
-95.25
-92.53
-84.36
-71.54
-55.56
-38.2
-21.06
-5.33
8.25
19.29
27.57
33.13
36.26
37.51
37.62
37.36
37.22
37.42
37.78
38.02
37.77
36.82
35.09
32.62
29.45
25.68
21.39
16.72
11.87
7.0
2.22
-2.51
-7.3
-12.37
-17.95
-24.23
-31.36
-39.28
-47.63
-55.59
-62.01
-65.5
-65.01
-60.09
-51.12
-39.22
-25.83
-12.38
0.03
10.64
18.99
24.82
27.96
28.51
26.81
23.5
19.31
14.91
10.8
7.21
4.25
1.94
0.27
-0.79
-1.45
-2.05
-3.02
-4.76
-7.49
-11.14
-15.34
-19.48
-22.95
-25.26
-26.21
-25.96
-25.02
-24.09
-23.84
-24.68
-26.51
-28.64
-29.81
-28.51
-23.42
-13.87
-0.1
16.66
34.5
51.21
64.91
74.34
79.08
79.48
76.42
70.98
64.18
56.77
49.33
42.12
35.38
29.23
23.79
19.07
14.99
11.42
8.13
4.89
1.51
-2.18
-6.39
-11.24
-16.86
-23.22
-30.11
-37.07
-43.43
-48.52
-51.94
-53.78
-54.66
-55.52
-57.12
-59.54
-62.04
-63.3
-61.92
-57.04
-48.75
-37.95
-25.98
-14.16
-3.44
5.62
12.77
17.88
20.89
21.86
21.04
18.86
15.85
12.49
9.2
6.23
3.79
2.09
1.29
1.48
2.53
4.02
5.27
5.47
4.06
0.87
-3.68
-8.7
-13.07
-15.87
-16.62
-15.5
-13.23
-10.97
-10.06
-11.64
-16.34
-23.89
-33.12
-42.05
-48.47
-50.65
-47.84
-40.45
-29.77
-17.55
-5.41
5.45
14.29
20.74
24.75
26.52
26.56
25.56
24.33
23.46
23.13
23.11
22.92
22.1
20.45
18.1
15.4
12.62
9.9
7.11
4.08
0.72
-2.83
-6.24
-9.19
-11.55
-13.43
-15.24
-17.55
-20.91
-25.69
-31.91
-39.06
-46.06
-51.33
-53.15
-50.15
-41.79
-28.64
-12.28
5.18
21.64
35.48
45.78
52.25
55.09
54.82
52.12
47.77
42.59
37.27
32.36
28.15
24.71
21.94
19.65
17.63
15.62
13.44
10.93
8.07
4.82
1.22
-2.79
-7.29
-12.32
-17.84
-23.63
-29.41
-34.89
-39.99
-44.83
-49.65
-54.61
-59.48
-63.57
-65.76
-64.8
-59.62
-49.73
-35.26
-17.0
3.68
24.94
44.6
60.48
70.78
74.65
72.45
65.65
56.44
46.91
38.56
31.94
26.89
22.91
19.51
16.43
13.58
10.9
8.34
5.74
2.99
0.02
-3.11
-6.18
-8.93
-11.14
-12.79
-14.18
-15.9
-18.67
-23.06
-29.29
-37.18
-46.16
-55.43
-64.04
-71.02
-75.33
-76.03
-72.44
-64.38
-52.32
-37.35
-20.95
-4.61
10.45
23.39
33.75
41.35
46.21
48.52
48.61
46.94
44.07
40.53
36.85
33.49
30.81
29.0
27.92
27.1
25.83
23.42
19.54
14.32
8.32
2.24
-3.42
-8.55
-13.36
-18.2
-23.32
-28.83
-34.74
-40.98
-47.34
-53.28
-57.87
-59.86
-58.06
-51.88
-41.55
-28.21
-13.44
1.13
14.35
25.48
34.23
40.43
44.04
45.11
43.96
41.22
37.66
34.0
30.76
28.02
25.61
23.18
20.47
17.41
14.15
10.97
8.08
5.57
3.3
1.04
-1.47
-4.42
-7.82
-11.68
-15.94
-20.65
-25.82
-31.38
-36.92
-41.76
-44.91
-45.42
-42.61
-36.41
-27.38
-16.56
-5.2
5.6
15.07
22.78
28.6
32.42
34.21
33.94
31.77
28.18
23.88
19.72
16.41
14.3
13.21
12.57
11.68
9.92
7.12
3.53
-0.33
-3.89
-6.88
-9.35
-11.66
-14.31
-17.63
-21.82
-26.85
-32.53
-38.53
-44.24
-48.77
-51.02
-49.97
-45.12
-36.66
-25.55
-13.2
-1.09
9.66
18.46
25.06
29.43
31.53
31.38
29.12
25.2
20.42
15.72
11.88
9.28
7.78
6.82
5.74
4.11
1.82
-0.88
-3.63
-6.13
-8.4
-10.62
-13.1
-16.19
-20.17
-25.22
-31.36
-38.28
-45.24
-51.04
-54.29
-53.84
-49.17
-40.65
-29.4
-16.9
-4.56
6.63
16.14
23.71
29.21
32.48
33.47
32.35
29.64
26.05
22.33
18.99
16.22
13.87
11.67
9.38
6.94
4.44
2.0
-0.31
-2.47
-4.59
-6.83
-9.45
-12.82
-17.31
-23.19
-30.4
-38.33
-45.75
-51.1
-52.79
-49.77
-41.82
-29.69
-14.82
1.0
16.11
29.28
39.88
47.76
53.02
55.85
56.36
54.7
51.11
46.06
40.21
34.24
28.67
23.64
18.93
14.17
9.09
3.77
-1.4
-5.89
-9.36
-11.81
-13.64
-15.45
-17.83
-21.18
-25.67
-31.19
-37.34
-43.39
-48.3
-50.87
-50.05
-45.35
-37.01
-25.94
-13.46
-0.85
10.88
21.08
29.34
35.32
38.81
39.75
38.35
35.19
31.06
26.78
22.91
19.75
17.2
14.99
12.73
10.17
7.26
4.14
1.14
-1.43
-3.42
-4.96
-6.46
-8.45
-11.45
-15.72
-21.17
-27.28
-33.07
-37.34
-38.9
-36.93
-31.27
-22.48
-11.65
-0.03
11.25
21.35
29.69
35.79
39.21
39.74
37.5
33.1
27.57
22.05
17.5
14.36
12.58
11.63
10.91
9.84
8.15
5.86
3.2
0.44
-2.22
-4.75
-7.38
-10.42
-14.23
-19.05
-24.88
-31.27
-37.4
-42.08
-44.07
-42.42
-36.82
-27.76
-16.44
-4.39
6.88
16.19
22.81
26.4
26.96
24.78
20.46
14.87
9.02
3.8
-0.23
-2.95
-4.63
-5.73
-6.7
-7.79
-9.08
-10.44
-11.73
-12.77
-13.43
-13.74
-13.86
-14.06
-14.68
-15.88
-17.47
-18.82
-18.98
-16.89
-11.84
-3.64
7.21
19.68
32.5
44.45
54.56
62.17
66.98
69.04
68.8
67.1
65.0
63.44
63.03
63.72
64.85
65.42
64.39
61.07
55.33
47.55
38.58
29.42
21.01
13.93
8.19
3.3
-1.58
-7.27
-14.16
-21.98
-29.76
-36.1
-39.64
-39.46
-35.35
-27.8
-17.78
-6.45
5.1
15.91
25.2
32.36
36.97
38.8
37.98
34.93
30.38
25.21
20.31
16.42
14.05
13.38
14.27
16.33
19.0
21.72
24.05
25.82
26.95
27.36
26.82
24.81
20.78
14.46
6.16
-3.07
-11.63
-17.92
-20.79
-19.97
-16.05
-10.25
-3.88
1.9
6.35
9.09
10.04
9.29
7.13
3.93
0.15
-3.81
-7.61
-11.01
-13.76
-15.6
-16.27
-15.41
-12.82
-8.34
-1.94
6.28
16.08
27.1
38.8
50.49
61.38
70.76
78.13
83.3
86.38
87.7
87.64
86.45
84.16
80.72
76.16
70.86
65.6
61.32
58.56
57.07
55.73
52.97
47.43
38.64
27.17
14.25
1.0
-12.05
-25.0
-38.21
-51.86
-65.78
-79.68
-93.41
-106.99
-120.33
-132.92
-143.77
-151.75
-156.22
-157.41
-156.31
-154.13
-151.65
-148.84
-145.07
-139.36
-131.12
-120.21
-106.96
-91.99
-76.07
-60.03
-44.77
-31.24
-20.32
-12.68
-8.44
-7.04
-7.22
-7.35
-6.14
-3.05
1.31
5.52
7.96
7.53
4.08
-1.53
-7.96
-13.86
-18.41
-21.54
-23.76
-25.94
-28.82
-32.79
-37.54
-42.11
-45.17
-45.44
-42.14
-35.27
-25.56
-14.08
-2.04
9.61
20.09
28.76
35.0
38.28
38.43
35.67
30.73
24.68
18.52
12.99
8.38
4.63
1.53
-1.1
-3.23
-4.65
-5.03
-4.2
-2.3
0.07
1.87
1.88
-0.92
-6.96
-15.87
-26.59
-37.61
-47.45
-55.09
-60.1
-62.69
-63.41
-62.96
-61.97
-61.01
-60.66
-61.46
-63.96
-68.42
-74.67
-81.9
-88.77
-93.75
-95.48
-93.27
-87.16
-77.9
-66.62
-54.52
-42.59
-31.54
-21.88
-13.96
-8.02
-4.16
-2.36
-2.37
-3.83
-6.32
-9.36
-12.34
-14.48
-14.81
-12.32
-6.22
3.8
17.35
33.5
50.89
68.14
83.95
97.3
107.4
113.79
116.27
114.93
110.09
102.17
91.53
78.3
62.46
44.13
23.9
3.0
-16.86
-33.8
-46.5
-54.5
-58.43
-59.77
-60.44
-62.32
-66.84
-74.72
-85.66
-98.2
-109.79
-117.32
-117.85
-109.57
-92.38
-67.99
-39.34
-9.84
17.39
40.02
56.67
66.9
71.07
70.26
66.04
60.17
54.23
49.18
45.35
42.54
40.25
37.97
35.37
32.18
28.26
23.52
17.97
11.87
5.53
-0.74
-6.88
-13.15
-20.0
-27.7
-36.06
-44.32
-51.17
-55.19
-55.28
-50.97
-42.56
-30.99
-17.57
-3.69
9.32
20.33
28.4
32.95
33.75
31.18
26.15
19.93
13.86
8.84
5.2
2.64
0.49
-1.9
-4.79
-8.06
-11.27
-14.03
-16.14
-17.73
-19.17
-20.82
-22.98
-25.84
-29.52
-34.11
-39.54
-45.43
-50.85
-54.46
-54.7
-50.33
-40.88
-26.91
-9.88
8.32
25.81
41.22
53.73
63.07
69.3
72.62
73.4
72.19
69.68
66.62
63.61
60.93
58.52
56.23
54.32
53.64
55.57
61.47
71.86
85.86
101.24
115.11
124.85
128.86
126.79
119.31
107.54
92.75
76.38
60.01
45.38
34.07
27.19
25.09
27.44
33.36
41.78
51.53
61.45
70.5
77.85
83.12
86.39
88.1
88.79
88.9
88.57
87.74
86.19
83.78
80.47
76.45
72.12
68.07
64.88
62.88
61.88
61.13
59.34
55.09
47.12
34.76
18.18
-1.51
-22.53
-42.79
-60.45
-74.23
-83.4
-87.71
-87.03
-81.39
-71.1
-57.04
-40.85
-24.7
-10.82
-0.87
4.52
5.72
3.79
-0.02
-4.71
-9.7
-14.7
-19.63
-24.41
-28.98
-33.24
-37.08
-40.45
-43.28
-45.59
-47.36
-48.63
-49.44
-49.79
-49.65
-48.93
-47.54
-45.26
-41.84
-36.9
-29.94
-20.41
-7.84
8.0
26.92
48.22
70.67
92.46
111.41
125.1
131.34
128.78
117.55
99.53
78.19
57.6
41.08
30.16
24.21
20.91
17.56
12.32
4.85
-3.87
-12.4
-19.76
-25.95
-31.92
-38.95
-48.11
-59.82
-73.76
-88.9
-103.71
-116.46
-125.42
-129.01
-125.94
-115.46
-97.64
-73.66
-45.84
-17.34
8.61
29.4
43.72
51.68
54.48
53.81
51.21
47.66
43.58
38.96
33.56
27.25
20.08
12.55
5.51
-0.04
-3.37
-4.47
-4.15
-3.87
-5.32
-9.92
-18.54
-31.4
-48.27
-68.59
-91.47
-115.55
-138.81
-158.62
-172.25
-177.63
-174.08
-162.62
-145.54
-125.58
-105.05
-85.28
-66.66
-49.21
-33.01
-18.45
-6.12
3.57
10.63
15.48
18.71
20.9
22.4
23.42
24.01
24.26
24.23
23.92
23.27
22.26
20.93
19.36
17.61
15.53
12.74
8.85
3.77
-1.99
-7.27
-10.56
-10.45
-6.1
2.55
14.92
30.1
47.14
65.15
83.4
101.27
118.27
134.18
148.86
162.03
172.87
179.92
181.3
175.32
161.08
138.84
109.91
76.24
40.02
3.54
-30.98
-61.38
-85.77
-102.86
-112.35
-115.03
-112.63
-107.42
-101.62
-96.86
-93.66
-91.28
-87.88
-81.02
-68.51
-49.2
-23.43
6.99
39.14
69.64
95.26
113.4
122.47
122.07
113.13
97.7
78.51
58.18
38.66
20.84
4.69
-10.34
-24.71
-38.5
-51.28
-62.31
-70.86
-76.5
-79.2
-79.31
-77.5
-74.55
-71.35
-68.64
-66.9
-66.22
-66.18
-66.07
-65.09
-62.77
-59.11
-54.66
-50.34
-47.08
-45.45
-45.42
-46.39
-47.25
-46.83
-44.15
-38.72
-30.54
-19.98
-7.51
6.5
21.85
38.32
55.5
72.58
88.44
101.9
112.08
118.66
121.95
122.62
121.37
118.55
114.05
107.43
98.33
86.67
72.9
57.93
42.95
29.19
17.66
8.95
2.9
-1.41
-5.56
-11.19
-19.41
-30.18
-42.28
-53.72
-62.58
-67.76
-69.27
-68.06
-65.39
-62.29
-59.31
-56.53
-53.89
-51.42
-49.46
-48.53
-49.25
-52.14
-57.56
-65.69
-76.49
-89.72
-104.77
-120.49
-135.17
-146.77
-153.29
-153.42
-146.84
-134.42
-117.92
-99.4
-80.73
-63.14
-47.21
-32.97
-20.3
-9.12
0.48
8.43
14.65
19.19
22.17
23.8
24.32
24.04
23.46
23.21
23.93
26.18
30.1
35.44
41.47
47.18
51.58
53.94
53.93
51.71
47.88
43.17
38.34
33.8
29.58
25.35
20.57
14.71
7.41
-1.44
-11.62
-22.67
-34.03
-45.09
-55.46
-65.04
-73.98
-82.43
-90.19
-96.56
-100.34
-100.2
-95.25
-85.36
-71.32
-54.53
-36.51
-18.47
-1.16
15.08
29.99
43.19
54.18
62.44
67.79
70.44
71.07
70.47
69.36
68.05
66.47
64.37
61.57
58.12
54.29
50.49
46.99
43.86
41.01
38.25
35.49
32.7
29.92
27.13
24.33
21.44
18.49
15.52
12.6
9.75
6.85
3.74
0.2
-3.87
-8.26
-12.63
-16.6
-19.96
-22.81
-25.57
-28.83
-33.06
-38.36
-44.24
-49.72
-53.45
-54.12
-50.75
-42.98
-31.15
-16.17
0.67
18.02
34.69
49.75
62.61
72.87
80.35
85.0
86.99
86.77
85.05
82.67
80.43
78.89
78.18
78.14
78.34
78.41
78.03
77.09
75.55
73.45
70.82
67.71
64.15
60.12
55.55
50.32
44.26
37.34
29.68
21.61
13.59
5.94
-1.16
-7.8
-14.32
-21.16
-28.76
-37.43
-47.27
-58.06
-69.15
-79.44
-87.48
-91.74
-91.12
-85.27
-74.92
-61.56
-46.95
-32.53
-19.11
-6.9
4.12
13.75
21.51
26.72
28.96
28.28
25.35
21.12
16.5
12.02
7.94
4.23
0.87
-2.0
-4.22
-5.61
-6.21
-6.3
-6.35
-6.89
-8.31
-10.67
-13.72
-16.97
-19.9
-22.23
-23.95
-25.38
-26.83
-28.51
-30.43
-32.36
-34.15
-35.82
-37.62
-39.86
-42.68
-45.66
-47.94
-48.35
-45.89
-39.92
-30.45
-18.01
-3.47
12.2
28.09
43.35
57.23
69.16
78.65
85.44
89.41
90.72
89.62
86.51
81.88
76.15
69.63
62.46
54.69
46.47
38.01
29.65
21.64
13.97
6.5
-1.08
-8.94
-17.04
-25.13
-32.93
-40.23
-46.95
-53.08
-58.6
-63.44
-67.51
-70.91
-73.96
-77.27
-81.44
-86.82
-93.1
-99.19
-103.45
-103.97
-99.43
-89.42
-74.69
-56.78
-37.41
-18.01
0.68
18.4
35.05
50.39
63.92
75.09
83.55
89.35
92.83
94.42
94.32
92.52
88.87
83.38
76.43
68.78
61.39
55.03
50.11
46.47
43.62
40.89
37.72
33.85
29.17
23.69
17.39
10.2
2.01
-7.21
-17.36
-28.31
-39.88
-51.93
-64.26
-76.36
-87.23
-95.45
-99.42
-97.93
-90.58
-78.03
-61.69
-43.27
-24.28
-5.68
11.94
28.19
42.68
54.93
64.56
71.44
75.81
78.08
78.74
78.07
76.17
73.01
68.46
62.55
55.44
47.5
39.26
31.24
23.85
17.22
11.14
5.18
-1.21
-8.3
-16.01
-23.86
-31.11
-37.23
-41.99
-45.7
-49.05
-52.89
-58.02
-64.89
-73.48
-83.07
-92.33
-99.37
-102.22
-99.3
-89.92
-74.47
-54.33
-31.46
-7.82
14.9
35.52
53.24
67.62
78.45
85.79
89.98
91.56
91.17
89.32
86.35
82.37
77.39
71.54
65.16
58.77
52.98
48.25
44.67
41.93
39.4
36.36
32.32
27.14
21.15
14.98
9.28
4.35
-0.0
-4.47
-10.03
-17.52
-27.14
-38.17
-48.94
-57.18
-60.76
-58.32
-49.7
-35.91
-18.67
0.19
19.29
37.9
55.92
73.64
91.5
109.62
127.56
143.92
156.45
162.56
160.3
149.25
130.83
107.8
83.04
58.41
34.31
10.11
-14.66
-39.3
-61.69
-79.04
-89.17
-91.58
-87.69
-80.09
-71.36
-63.1
-55.54
-48.2
-40.61
-33.02
-26.36
-21.58
-18.85
-17.05
-13.91
-6.94
5.95
25.87
53.01
86.64
125.01
164.93
201.83
230.3
245.51
244.72
228.39
199.94
164.7
128.27
95.09
67.83
47.39
33.44
24.83
20.02
17.14
14.2
9.64
2.44
-7.56
-19.74
-32.96
-45.83
-56.96
-65.35
-70.59
-73.15
-74.32
-75.76
-79.04
-85.06
-93.84
-104.51
-115.85
-126.82
-137.01
-146.61
-155.77
-164.24
-171.11
-175.23
-175.81
-172.88
-167.14
-159.47
-150.56
-140.82
-130.79
-121.67
-115.15
-112.53
-113.69
-116.31
-116.51
-110.53
-96.75
-76.85
-55.16
-36.85
-25.52
-22.06
-24.56
-29.77
-34.73
-37.81
-38.86
-38.47
-37.21
-35.12
-31.86
-27.19
-21.47
-15.86
-12.09
-11.83
-15.99
-24.37
-35.45
-46.96
-56.46
-62.13
-63.12
-59.62
-52.34
-42.08
-29.43
-14.66
1.88
19.61
37.48
54.09
68.01
78.13
83.88
85.4
83.39
78.9
73.05
66.73
60.39
54.12
47.76
41.27
34.76
28.56
22.99
18.12
13.79
9.67
5.53
1.36
-2.67
-6.41
-9.76
-12.83
-15.87
-19.21
-23.2
-28.18
-34.43
-41.85
-49.89
-57.34
-62.66
-64.34
-61.46
-54.02
-42.87
-29.43
-15.17
-1.27
11.49
22.68
32.09
39.58
45.1
48.69
50.52
50.9
50.17
48.69
46.63
44.08
40.95
37.14
32.75
28.09
23.62
19.78
16.73
14.33
12.24
10.06
7.62
4.9
1.82
-1.79
-6.3
-12.12
-19.39
-27.78
-36.62
-44.91
-51.65
-55.86
-56.6
-53.01
-44.42
-30.68
-12.41
8.95
31.46
53.14
72.54
88.91
102.14
112.33
119.58
123.87
125.22
123.9
120.52
115.81
110.4
104.6
98.48
92.02
85.33
78.76
72.77
67.69
63.58
60.28
57.55
55.22
53.3
51.76
50.35
48.37
44.76
38.49
29.14
17.29
4.6
-6.6
-14.04
-16.19
-12.61
-4.1
7.67
20.44
31.82
39.82
43.31
42.32
38.05
32.49
27.45
23.67
20.35
15.28
5.96
-9.09
-29.19
-51.31
-70.79
-82.99
-85.01
-76.91
-61.94
-45.5
-33.34
-29.52
-35.08
-47.86
-63.51
-77.16
-84.95
-85.07
-77.97
-65.88
-51.88
-38.98
-29.15
-22.91
-19.49
-17.47
-15.66
-13.61
-11.77
-11.06
-12.25
-15.5
-20.29
-25.62
-30.49
-34.01
-35.5
-34.49
-30.67
-23.99
-14.82
-3.86
7.95
19.55
29.78
37.61
42.2
43.24
41.06
36.6
31.17
25.95
21.71
18.56
16.11
13.79
11.26
8.39
5.23
1.79
-2.2
-7.31
-14.15
-23.24
-34.8
-48.66
-64.0
-79.02
-90.89
-96.07
-91.25
-74.46
-46.02
-8.85
32.34
72.18
106.02
130.63
144.34
146.68
138.11
120.05
94.94
66.27
37.91
13.15
-6.22
-20.39
-31.14
-40.99
-52.03
-65.25
-80.29
-95.91
-110.54
-122.93
-132.35
-138.68
-142.22
-143.42
-142.67
-140.28
-136.53
-131.9
-126.97
-122.04
-116.4
-108.05
-94.28
-72.99
-44.22
-10.92
21.68
47.87
63.41
66.87
59.47
43.96
23.36
0.31
-22.9
-43.89
-60.15
-69.61
-71.37
-66.19
-56.3
-44.61
-33.75
-25.39
-20.05
-17.31
-16.22
-15.86
-15.45
-14.64
-13.4
-11.92
-10.51
-9.38
-8.59
-7.97
-7.29
-6.3
-4.84
-2.82
-0.12
3.42
7.97
13.56
19.96
26.58
32.74
37.8
41.51
43.96
45.59
46.83
47.95
48.89
49.34
48.94
47.5
45.06
41.99
38.78
35.94
33.81
32.55
32.01
31.93
32.04
32.11
32.1
32.12
32.39
33.07
34.27
35.93
37.84
39.63
40.94
41.42
40.89
39.47
37.64
36.24
36.28
38.69
44.0
52.07
62.17
73.24
84.26
94.58
104.0
112.5
119.89
125.46
128.0
126.25
119.42
107.71
92.31
75.06
57.77
41.65
26.98
13.37
-0.05
-14.1
-29.44
-46.48
-65.34
-85.69
-106.66
-126.82
-144.45
-158.12
-167.12
-171.81
-173.38
-173.27
-172.34
-170.48
-166.52
-158.87
-146.32
-128.63
-106.77
-82.54
-57.96
-34.71
-13.88
3.93
18.37
29.03
35.55
37.8
36.18
31.82
26.37
21.49
18.36
17.23
17.41
17.61
16.56
13.56
8.77
3.1
-2.04
-5.38
-6.01
-3.65
1.5
8.74
17.24
26.07
34.45
42.04
49.04
56.22
64.5
74.43
85.7
97.11
106.88
113.43
115.99
114.82
110.92
105.26
98.23
89.29
77.31
61.19
40.51
16.0
-10.45
-36.19
-58.5
-75.36
-85.96
-90.82
-91.57
-90.3
-88.86
-88.39
-89.2
-90.83
-92.47
-93.12
-91.88
-87.95
-80.83
-70.24
-56.28
-39.43
-20.48
-0.52
19.23
37.54
53.39
66.19
75.88
82.9
87.98
91.83
94.85
97.04
98.11
97.64
95.35
91.14
85.05
77.21
67.69
56.57
43.96
30.07
15.24
-0.02
-15.18
-29.54
-42.51
-53.58
-62.44
-69.09
-73.74
-76.8
-78.7
-79.87
-80.53
-80.77
-80.41
-78.94
-75.62
-69.51
-59.95
-46.73
-30.41
-12.25
6.06
22.85
36.87
47.5
54.77
59.01
60.68
60.1
57.57
53.42
48.11
42.21
36.17
30.18
24.09
17.59
10.52
3.08
-4.13
-10.41
-15.25
-18.66
-21.18
-23.67
-26.93
-31.54
-37.7
-45.29
-53.9
-62.8
-70.96
-77.03
-79.7
-77.92
-71.24
-59.93
-44.8
-27.03
-7.82
11.61
30.08
46.46
59.76
69.2
74.48
75.78
73.71
69.15
63.05
56.28
49.51
43.13
37.22
31.69
26.26
20.87
15.73
11.41
8.66
8.0
9.3
11.61
13.29
12.62
8.43
0.62
-9.74
-20.83
-30.7
-37.92
-41.78
-42.27
-39.78
-34.73
-27.55
-18.72
-8.97
0.69
9.01
14.8
17.31
16.47
13.01
8.26
3.76
0.71
-0.39
0.08
1.15
1.75
1.22
-0.4
-2.5
-4.25
-5.1
-4.95
-4.11
-3.1
-2.36
-2.15
-2.52
-3.47
-5.04
-7.12
-9.36
-11.15
-11.51
-9.4
-4.04
4.88
17.09
31.7
47.49
63.01
76.82
87.51
93.9
95.26
91.57
83.72
73.42
62.76
53.56
46.84
42.6
40.07
38.2
36.12
33.44
30.09
26.23
22.0
17.53
12.94
8.3
3.53
-1.74
-8.25
-16.77
-27.68
-40.66
-54.59
-67.92
-79.16
-87.44
-92.72
-95.61
-97.0
-97.59
-97.56
-96.69
-94.52
-90.64
-84.93
-77.69
-69.71
-62.14
-56.27
-53.15
-53.28
-56.31
-61.16
-66.35
-70.49
-72.65
-72.61
-70.68
-67.37
-63.04
-57.9
-52.08
-45.85
-39.64
-33.97
-29.08
-24.72
-20.08
-14.06
-5.6
5.82
19.97
35.88
52.13
67.34
80.48
91.16
99.58
106.22
111.51
115.59
118.25
119.08
117.77
114.27
108.83
101.76
93.19
82.95
70.61
55.86
38.77
19.94
0.16
-19.82
-39.69
-59.41
-78.99
-98.13
-116.05
-131.81
-144.55
-153.81
-159.47
-161.57
-160.02
-154.63
-145.33
-132.46
-116.89
-99.85
-82.48
-65.47
-49.01
-32.98
-17.47
-2.92
9.71
19.4
25.43
27.64
26.5
22.83
17.43
10.9
3.68
-3.79
-10.92
-17.09
-21.94
-25.54
-28.51
-31.73
-36.05
-42.02
-49.77
-59.07
-69.45
-80.11
-89.96
-97.62
-101.66
-101.02
-95.36
-85.1
-71.21
-54.71
-36.4
-16.73
3.81
24.45
44.0
60.95
73.98
82.31
85.95
85.65
82.62
78.12
73.2
68.55
64.43
60.9
57.83
55.17
52.99
51.41
50.43
49.8
49.0
47.34
44.15
39.03
31.84
22.76
12.26
1.21
-9.23
-17.64
-22.54
-22.7
-17.51
-7.05
7.81
25.76
45.21
64.69
82.92
98.9
111.92
121.46
127.25
129.25
127.73
123.21
116.47
108.35
99.65
90.93
82.5
74.43
66.61
58.93
51.32
43.83
36.55
29.62
22.98
16.47
9.77
2.49
-5.75
-15.24
-26.06
-37.97
-50.33
-61.95
-71.28
-76.68
-76.88
-71.36
-60.51
-45.47
-27.78
-8.95
9.73
27.34
43.12
56.38
66.49
72.99
75.74
75.06
71.76
66.88
61.54
56.64
52.71
49.81
47.62
45.69
43.55
40.94
37.79
34.15
30.06
25.43
20.03
13.59
5.8
-3.65
-15.02
-28.46
-43.77
-60.28
-76.66
-91.01
-101.33
-105.98
-104.11
-95.78
-81.91
-63.85
-43.21
-21.59
-0.43
19.05
35.97
49.78
60.32
67.65
72.03
73.78
73.36
71.41
68.64
65.79
63.41
61.74
60.64
59.71
58.49
56.6
53.83
50.17
45.7
40.51
34.72
28.35
21.47
14.07
6.07
-2.74
-12.62
-23.71
-35.72
-47.76
-58.37
-65.78
-68.49
-65.63
-57.34
-44.58
-28.84
-11.67
5.58
21.95
36.83
49.77
60.48
68.72
74.4
77.65
78.73
78.04
75.96
72.77
68.65
63.76
58.3
52.56
46.92
41.71
37.11
33.08
29.3
25.24
20.35
14.11
6.29
-2.97
-13.24
-23.85
-34.1
-43.53
-52.04
-59.95
-67.82
-76.14
-85.06
-94.07
-102.03
-107.46
-108.89
-105.37
-96.79
-83.87
-67.88
-50.27
-32.3
-14.88
1.39
16.09
28.76
39.0
46.47
51.16
53.35
53.6
52.55
50.67
48.21
45.19
41.57
37.41
32.91
28.46
24.4
20.91
17.9
15.02
11.79
7.87
3.13
-2.2
-7.69
-12.87
-17.4
-21.29
-24.91
-28.87
-33.83
-40.22
-47.98
-56.47
-64.51
-70.62
-73.48
-72.22
-66.68
-57.45
-45.6
-32.42
-19.01
-6.14
5.79
16.66
26.39
34.76
41.47
46.12
48.49
48.62
46.87
43.86
40.22
36.45
32.78
29.29
26.01
22.96
20.22
17.81
15.6
13.35
10.73
7.49
3.55
-0.99
-5.91
-10.97
-16.01
-21.1
-26.47
-32.51
-39.6
-47.86
-57.01
-66.19
-74.1
-79.26
-80.4
-76.92
-69.06
-57.79
-44.45
-30.42
-16.69
-3.81
8.03
18.73
28.19
36.16
42.36
46.62
48.96
49.66
49.1
47.65
45.6
43.08
40.22
37.11
34.0
31.11
28.62
26.49
24.46
22.04
18.75
14.29
8.71
2.31
-4.39
-10.94
-17.05
-22.71
-28.11
-33.53
-39.28
-45.62
-52.67
-60.43
-68.48
-75.99
-81.72
-84.36
-82.92
-77.09
-67.35
-54.77
-40.69
-26.28
-12.34
0.69
12.59
23.19
32.23
39.43
44.52
47.4
48.18
47.16
44.77
41.52
37.8
33.9
30.02
26.29
22.85
19.86
17.42
15.43
13.59
11.46
8.56
4.61
-0.37
-6.03
-11.86
-17.4
-22.43
-27.05
-31.6
-36.56
-42.34
-49.24
-57.27
-66.09
-74.95
-82.76
-88.24
-90.24
-88.07
-81.67
-71.6
-58.84
-44.49
-29.52
-14.69
-0.53
12.51
23.96
33.32
40.22
44.56
46.63
47.07
46.69
46.2
45.98
46.07
46.31
46.54
46.78
47.22
48.06
49.32
50.77
52.06
52.88
53.08
52.7
51.89
50.78
49.46
48.02
46.54
45.08
43.5
41.46
38.54
34.5
29.67
25.05
22.11
22.24
26.1
33.34
42.72
52.57
61.47
68.57
73.66
76.86
78.3
77.86
75.3
70.36
62.92
53.08
41.01
26.97
11.27
-5.6
-22.97
-39.93
-55.59
-69.16
-80.17
-88.39
-93.76
-96.31
-96.17
-93.68
-89.51
-84.71
-80.68
-78.78
-79.91
-84.17
-90.74
-98.27
-105.39
-111.26
-115.72
-119.02
-121.25
-121.93
-120.0
-114.33
-104.28
-90.04
-72.44
-52.39
-30.5
-7.06
17.44
41.86
64.29
82.61
95.25
101.94
103.63
101.96
98.41
93.74
87.96
80.78
72.25
62.91
53.71
45.51
38.75
33.22
28.33
23.42
18.08
12.24
6.03
-0.27
-6.46
-12.44
-18.25
-24.07
-30.18
-36.9
-44.42
-52.66
-61.13
-68.92
-74.92
-78.07
-77.64
-73.36
-65.39
-54.13
-40.04
-23.54
-5.11
14.57
34.49
53.35
69.84
82.85
91.77
96.53
97.72
96.55
94.82
94.52
97.26
103.55
112.28
120.97
126.47
126.23
119.24
106.28
89.56
71.59
54.31
38.63
24.58
11.76
-0.24
-11.62
-22.51
-33.11
-43.76
-54.9
-66.89
-79.66
-92.56
-104.31
-113.25
-117.86
-117.32
-111.82
-102.63
-91.63
-80.6
-70.7
-62.17
-54.69
-47.81
-41.39
-35.79
-31.59
-29.21
-28.64
-29.41
-30.81
-32.17
-33.06
-33.3
-32.92
-32.11
-31.07
-30.08
-29.38
-29.13
-29.35
-29.96
-30.73
-31.51
-32.21
-32.89
-33.72
-34.94
-36.82
-39.62
-43.55
-48.56
-54.17
-59.36
-62.77
-63.0
-59.13
-50.98
-39.25
-25.21
-10.31
4.21
17.54
29.23
39.05
46.89
52.54
55.87
56.89
55.86
53.19
49.45
45.15
40.67
36.27
32.07
28.2
24.78
21.85
19.33
17.0
14.52
11.58
7.97
3.74
-0.94
-5.82
-10.72
-15.7
-21.05
-27.23
-34.63
-43.36
-52.95
-62.29
-69.78
-73.8
-73.11
-67.3
-56.91
-43.25
-27.95
-12.54
1.85
14.53
25.18
33.65
39.88
43.85
45.7
45.68
44.21
41.81
38.95
36.03
33.23
30.62
28.14
25.67
23.08
20.26
17.1
13.54
9.64
5.49
1.25
-2.99
-7.27
-11.79
-16.87
-22.79
-29.76
-37.83
-46.8
-56.14
-64.96
-71.96
-75.69
-74.9
-69.02
-58.37
-44.14
-28.02
-11.68
3.61
17.12
28.53
37.68
44.38
48.44
49.75
48.47
45.06
40.16
34.56
28.9
23.6
18.86
14.67
10.93
7.49
4.21
1.01
-2.15
-5.26
-8.3
-11.28
-14.25
-17.39
-20.9
-25.05
-30.12
-36.28
-43.55
-51.51
-59.31
-65.58
-68.81
-67.72
-61.73
-51.13
-37.1
-21.22
-5.13
9.94
23.14
34.06
42.43
48.13
51.14
51.58
49.81
46.38
41.9
37.07
32.41
28.32
24.89
22.03
19.46
16.85
13.93
10.53
6.56
2.03
-3.08
-8.77
-15.03
-21.88
-29.32
-37.43
-46.38
-56.27
-67.0
-77.98
-87.99
-95.32
-98.17
-95.25
-86.23
-71.93
-54.03
-34.6
-15.38
2.51
18.6
32.77
44.88
54.64
61.6
65.44
66.25
64.46
60.82
56.22
51.32
46.58
42.17
38.04
34.06
30.13
26.22
22.4
18.78
15.4
12.12
8.6
4.38
-1.03
-7.95
-16.46
-26.36
-37.11
-47.8
-57.13
-63.52
-65.52
-62.15
-53.35
-40.03
-23.81
-6.54
10.21
25.45
38.88
50.47
60.28
68.1
73.59
76.37
76.35
73.87
69.65
64.61
59.56
54.95
50.74
46.58
41.98
36.65
30.6
24.2
17.97
12.37
7.55
3.32
-0.84
-5.5
-11.2
-18.27
-26.69
-36.1
-45.66
-54.11
-59.84
-61.28
-57.23
-47.3
-32.05
-12.8
8.75
30.95
52.58
72.77
90.95
106.67
119.55
129.37
136.21
140.44
142.71
143.68
143.83
143.39
142.36
140.66
138.28
135.44
132.5
129.86
127.78
126.23
124.83
123.03
120.31
116.35
111.05
104.6
97.32
89.68
82.18
75.31
69.34
64.08
58.81
52.31
43.23
30.56
14.1
-5.44
-26.65
-47.87
-67.67
-85.1
-99.76
-111.66
-121.1
-128.6
-134.88
-140.61
-146.37
-152.35
-158.42
-164.14
-169.2
-173.75
-178.47
-184.4
-192.46
-202.85
-214.7
-226.21
-235.0
-238.95
-236.87
-228.91
-216.52
-202.03
-188.01
-176.45
-168.34
-163.42
-160.24
-156.66
-150.47
-139.96
-124.4
-104.26
-81.04
-56.76
-33.42
-12.4
5.81
21.47
35.3
47.99
59.92
71.14
81.44
90.61
98.43
104.53
108.43
109.47
107.21
101.69
93.71
84.54
75.54
67.63
61.05
55.44
50.17
44.68
38.55
31.53
23.38
13.8
2.5
-10.5
-24.67
-38.71
-50.76
-58.71
-60.77
-56.02
-44.79
-28.53
-9.35
10.55
29.49
46.48
61.17
73.44
83.22
90.34
94.59
95.84
94.23
90.13
84.23
77.35
70.29
63.72
57.94
52.97
48.61
44.5
40.37
36.08
31.64
27.13
22.57
17.83
12.66
6.7
-0.37
-8.81
-18.77
-30.06
-42.14
-53.93
-63.87
-70.21
-71.43
-66.75
-56.36
-41.44
-23.82
-5.39
12.33
28.43
42.46
54.22
63.45
69.84
73.08
73.13
70.41
65.7
60.01
54.25
48.98
44.37
40.27
36.43
32.56
28.43
23.87
18.82
13.25
7.34
1.39
-4.22
-9.24
-13.62
-17.61
-21.71
-26.54
-32.62
-40.19
-48.97
-58.05
-65.91
-70.74
-70.92
-65.55
-54.82
-39.98
-22.87
-5.37
11.15
25.96
38.84
49.74
58.53
64.94
68.8
70.17
69.44
67.25
64.31
61.08
57.83
54.62
51.45
48.35
45.4
42.65
39.96
37.01
33.39
28.79
23.1
16.55
9.61
2.83
-3.4
-8.95
-14.06
-19.22
-25.03
-32.03
-40.37
-49.63
-58.74
-66.1
-69.93
-68.86
-62.34
-50.88
-35.85
-19.1
-2.41
12.92
26.04
36.51
44.11
48.7
50.22
48.85
45.06
39.57
33.28
26.99
21.36
16.67
12.97
10.04
7.52
4.92
1.75
-2.33
-7.47
-13.51
-19.99
-26.31
-31.93
-36.54
-40.19
-43.19
-46.07
-49.42
-53.65
-58.83
-64.5
-69.62
-72.7
-72.15
-66.79
-56.28
-41.33
-23.47
-4.67
13.28
29.14
42.34
52.81
60.63
65.84
68.47
68.72
67.01
64.07
60.65
57.32
54.2
51.11
47.77
44.08
40.17
36.37
32.93
29.78
26.61
22.93
18.42
13.02
6.99
0.8
-5.16
-10.73
-16.06
-21.59
-27.9
-35.5
-44.66
-55.18
-66.22
-76.38
-83.86
-86.91
-84.31
-75.8
-62.2
-45.09
-26.4
-7.83
9.44
24.78
37.87
48.56
56.68
62.09
64.88
65.3
63.83
60.99
57.25
52.94
48.26
43.41
38.67
34.38
30.86
28.3
26.54
25.06
23.12
19.92
15.04
8.55
1.08
-6.46
-13.29
-19.06
-24.07
-29.05
-34.9
-42.25
-51.23
-61.32
-71.34
-79.67
-84.55
-84.47
-78.6
-67.09
-51.03
-32.18
-12.47
6.47
23.63
38.44
50.64
60.01
66.3
69.41
69.61
67.61
64.37
60.76
57.24
53.7
49.64
44.52
38.15
30.76
22.92
15.18
7.8
0.73
-6.26
-13.14
-19.39
-24.03
-25.8
-23.62
-16.93
-6.12
7.33
20.81
30.78
33.5
25.95
7.12
-21.2
-54.23
-85.28
-107.66
-116.64
-110.91
-92.67
-66.48
-37.56
-10.18
12.99
30.93
43.65
51.54
55.12
55.08
52.39
48.3
44.04
40.5
37.99
36.14
34.27
31.71
28.21
23.95
19.55
15.64
12.53
10.06
7.64
4.6
0.47
-4.72
-10.48
-16.12
-21.06
-25.19
-28.87
-32.92
-38.14
-44.99
-53.26
-61.93
-69.31
-73.52
-72.91
-66.71
-55.26
-39.93
-22.8
-5.98
8.84
20.74
29.58
35.64
39.34
40.99
40.79
38.96
35.87
32.05
28.09
24.44
21.33
18.72
16.44
14.31
12.17
9.99
7.71
5.33
2.83
0.2
-2.53
-5.33
-8.13
-10.97
-13.96
-17.34
-21.45
-26.62
-33.0
-40.31
-47.78
-54.1
-57.73
-57.33
-52.15
-42.35
-29.04
-13.91
1.17
14.65
25.63
33.81
39.37
42.55
43.54
42.48
39.52
35.02
29.57
23.97
18.93
14.87
11.87
9.66
7.82
6.05
4.17
2.21
0.28
-1.54
-3.23
-4.83
-6.39
-8.02
-9.83
-12.04
-14.99
-19.04
-24.36
-30.76
-37.51
-43.38
-46.87
-46.55
-41.53
-31.64
-17.61
-0.84
16.93
34.0
49.06
61.31
70.45
76.46
79.47
79.62
77.15
72.46
66.17
59.08
51.89
45.07
38.69
32.44
25.83
18.42
9.92
0.34
-10.07
-20.83
-31.31
-40.83
-48.82
-55.09
-59.9
-63.92
-68.11
-73.38
-80.26
-88.61
-97.62
-105.85
-111.64
-113.53
-110.63
-102.92
-91.18
-76.71
-60.97
-45.15
-30.13
-16.49
-4.69
4.79
11.53
15.33
16.43
15.47
13.34
10.96
8.92
7.39
6.15
4.76
2.85
0.25
-3.01
-6.7
-10.54
-14.36
-18.04
-21.63
-25.24
-29.12
-33.62
-39.13
-45.86
-53.68
-61.86
-69.05
-73.59
-73.91
-69.13
-59.38
-45.71
-29.82
-13.48
1.88
15.43
26.93
36.43
44.0
49.64
53.16
54.39
53.36
50.4
46.1
41.22
36.45
32.2
28.52
25.14
21.69
17.85
13.51
8.79
3.92
-0.94
-5.8
-10.85
-16.4
-22.75
-30.1
-38.52
-47.93
-57.94
-67.77
-76.12
-81.4
-82.14
-77.47
-67.52
-53.5
-37.23
-20.59
-4.93
9.06
21.2
31.42
39.49
45.03
47.72
47.67
45.46
42.06
38.46
35.35
32.98
31.1
29.28
27.04
24.15
20.54
16.44
12.14
7.92
3.91
0.01
-4.0
-8.51
-13.91
-20.55
-28.62
-38.16
-48.73
-59.37
-68.52
-74.31
-75.08
-69.89
-58.98
-43.65
-25.86
-7.61
9.58
24.81
37.72
48.17
56.06
61.24
63.74
63.8
61.95
58.84
55.09
51.14
47.23
43.49
39.97
36.72
33.78
31.1
28.47
25.61
22.24
18.18
13.47
8.28
2.88
-2.52
-7.93
-13.57
-19.9
-27.37
-36.1
-45.66
-54.88
-62.05
-65.29
-63.21
-55.35
-42.45
-26.15
-8.51
8.59
23.85
36.65
46.83
54.44
59.53
62.14
62.47
60.99
58.35
55.25
52.24
49.51
46.92
44.23
41.25
38.02
34.81
31.96
29.71
27.98
26.37
24.27
21.1
16.6
10.93
4.58
-1.81
-7.76
-13.2
-18.42
-24.01
-30.56
-38.49
-47.74
-57.65
-67.0
-74.14
-77.41
-75.6
-68.3
-56.08
-40.28
-22.62
-4.68
12.36
27.72
40.91
51.53
59.21
63.72
65.14
64.06
61.37
58.1
55.09
52.74
50.97
49.47
47.82
45.77
43.31
40.53
37.55
34.35
30.76
26.53
21.36
15.19
8.15
0.65
-6.8
-13.75
-20.01
-25.78
-31.52
-37.8
-45.05
-53.43
-62.69
-72.21
-81.01
-87.89
-91.62
-91.21
-86.18
-76.83
-64.14
-49.61
-34.85
-21.24
-9.69
-0.71
5.53
9.03
9.87
8.33
4.95
0.62
-3.6
-6.62
-7.64
-6.44
-3.46
0.4
4.08
6.89
8.78
10.48
13.1
17.7
24.85
34.6
46.64
60.7
76.6
93.97
111.75
127.91
139.73
144.64
141.29
130.06
112.99
92.84
72.19
52.78
35.54
20.95
9.41
1.28
-3.45
-5.41
-5.9
-6.44
-8.22
-11.62
-16.13
-20.69
-24.25
-26.26
-26.85
-26.75
-26.84
-27.68
-29.3
-31.19
-32.74
-33.52
-33.59
-33.39
-33.43
-33.92
-34.69
-35.28
-35.26
-34.52
-33.29
-32.08
-31.28
-31.02
-31.0
-30.75
-29.82
-28.03
-25.54
-22.74
-20.08
-17.9
-16.42
-15.74
-15.9
-16.85
-18.25
-19.39
-19.14
-16.18
-9.44
1.48
16.17
33.64
52.71
72.49
92.66
113.28
134.25
154.79
173.12
186.8
193.43
191.43
180.69
162.49
139.13
113.28
87.5
63.88
43.91
28.44
17.6
10.88
7.27
5.63
4.94
4.65
4.68
5.2
6.39
8.22
10.39
12.38
13.5
13.07
10.51
5.43
-2.31
-12.59
-25.06
-39.25
-54.61
-70.48
-86.1
-100.51
-112.53
-120.92
-124.63
-123.21
-116.96
-107.1
-95.27
-83.14
-71.86
-61.85
-53.02
-45.17
-38.3
-32.81
-29.16
-27.59
-27.82
-29.08
-30.36
-30.81
-30.08
-28.37
-26.18
-24.09
-22.31
-20.62
-18.47
-15.29
-10.84
-5.38
0.45
5.92
10.53
14.23
17.38
20.48
23.93
27.81
31.89
35.73
38.88
40.99
41.88
41.54
40.2
38.29
36.52
35.81
37.11
41.05
47.68
56.34
65.77
74.52
81.3
85.31
86.27
84.18
79.13
71.09
59.97
45.82
29.02
10.35
-9.01
-27.68
-44.37
-58.15
-68.57
-75.79
-80.47
-83.62
-86.22
-88.94
-92.04
-95.39
-98.65
-101.55
-103.94
-105.83
-107.29
-108.35
-109.06
-109.51
-109.94
-110.71
-112.19
-114.69
-118.4
-123.3
-129.32
-136.1
-143.0
-148.84
-151.99
-150.74
-143.77
-130.75
-112.41
-90.47
-66.96
-43.73
-21.99
-2.31
15.11
30.19
42.73
52.48
59.28
63.24
64.78
64.58
63.36
61.76
60.09
58.34
56.26
53.57
50.22
46.45
42.79
39.71
37.36
35.42
33.25
30.14
25.77
20.32
14.42
8.77
3.82
-0.53
-4.81
-9.74
-15.93
-23.67
-32.9
-43.25
-54.01
-64.15
-72.31
-77.08
-77.26
-72.31
-62.54
-49.02
-33.28
-16.84
-0.85
14.02
27.44
39.24
49.18
56.93
62.19
64.81
64.96
63.18
60.27
57.04
54.12
51.65
49.47
47.17
44.39
41.04
37.32
33.61
30.23
27.29
24.57
21.64
18.07
13.59
8.28
2.52
-3.14
-8.22
-12.54
-16.3
-20.01
-24.31
-29.75
-36.58
-44.72
-53.64
-62.46
-69.83
-74.27
-74.47
-69.62
-59.86
-46.14
-30.09
-13.43
2.41
16.52
28.49
38.16
45.46
50.34
52.88
53.42
52.55
51.04
49.56
48.43
47.57
46.54
44.84
42.2
38.72
34.86
31.14
27.92
25.13
22.37
19.03
14.64
9.13
2.8
-3.73
-9.8
-15.0
-19.3
-23.07
-26.94
-31.6
-37.65
-45.35
-54.49
-64.33
-73.56
-80.5
-83.44
-81.12
-73.2
-60.38
-44.26
-26.86
-10.04
4.92
17.43
27.34
34.73
39.61
42.03
42.12
40.38
37.63
34.79
32.62
31.46
31.15
31.31
31.56
31.74
31.92
32.22
32.57
32.59
31.67
29.26
25.11
19.46
12.91
6.17
-0.24
-6.2
-11.99
-18.14
-25.21
-33.61
-43.43
-54.32
-65.4
-75.33
-82.45
-85.15
-82.37
-73.95
-60.74
-44.34
-26.62
-9.23
6.75
20.82
32.88
42.94
50.96
56.88
60.74
62.75
63.33
62.94
61.99
60.69
59.09
57.13
54.82
52.3
49.81
47.58
45.6
43.61
41.02
37.25
31.93
25.12
17.32
9.24
1.53
-5.44
-11.75
-17.83
-24.29
-31.7
-40.43
-50.46
-61.25
-71.65
-80.04
-84.62
-83.93
-77.36
-65.31
-49.21
-30.9
-12.25
5.44
21.51
35.78
48.19
58.58
66.6
71.95
74.66
75.17
74.36
73.1
71.99
71.14
70.21
68.78
66.6
63.83
60.9
58.27
56.1
54.16
51.87
48.59
43.96
37.98
31.05
23.79
16.7
10.04
3.7
-2.71
-9.62
-17.45
-26.45
-36.67
-47.93
-59.58
-70.43
-78.8
-82.86
-81.2
-73.36
-60.15
-43.36
-25.18
-7.48
8.6
22.75
35.07
45.6
54.16
60.35
63.86
64.77
63.66
61.34
58.64
56.01
53.48
50.79
47.71
44.21
40.64
37.48
35.06
33.35
31.82
29.69
26.2
20.94
14.05
6.07
-2.15
-9.88
-16.74
-22.78
-28.48
-34.44
-41.24
-49.18
-58.19
-67.82
-77.19
-85.04
-89.98
-90.77
-86.68
-77.76
-64.94
-49.71
-33.75
-18.47
-4.75
7.01
16.74
24.44
30.06
33.62
35.23
35.32
34.47
33.3
32.3
31.64
31.2
30.74
29.98
28.77
27.22
25.5
23.79
22.1
20.25
17.9
14.71
10.48
5.34
-0.38
-6.16
-11.54
-16.34
-20.64
-24.81
-29.36
-34.8
-41.44
-49.21
-57.54
-65.35
-71.14
-73.34
-70.82
-63.18
-50.98
-35.52
-18.52
-1.55
14.25
28.26
40.28
50.24
58.07
63.6
66.75
67.64
66.7
64.53
61.76
58.79
55.67
52.28
48.41
44.07
39.55
35.32
31.81
29.2
27.3
25.59
23.48
20.54
16.65
11.99
7.01
2.16
-2.28
-6.33
-10.35
-14.88
-20.53
-27.69
-36.52
-46.68
-57.39
-67.4
-75.15
-79.12
-78.17
-71.93
-60.95
-46.48
-30.2
-13.7
1.77
15.46
27.01
36.25
43.04
47.29
49.04
48.64
46.68
43.94
41.12
38.6
36.41
34.26
31.83
28.96
25.78
22.68
20.0
17.88
16.08
14.12
11.45
7.71
2.9
-2.58
-8.19
-13.35
-17.78
-21.6
-25.27
-29.48
-34.87
-41.75
-49.99
-58.83
-67.06
-73.2
-75.82
-73.94
-67.32
-56.47
-42.57
-27.15
-11.7
2.57
14.85
24.63
31.64
35.8
37.22
36.24
33.48
29.67
25.54
21.66
18.31
15.56
13.33
11.53
10.13
9.07
8.29
7.65
6.89
5.79
4.15
1.97
-0.62
-3.38
-6.12
-8.72
-11.25
-13.9
-16.99
-20.88
-25.9
-32.14
-39.29
-46.54
-52.57
-55.79
-54.89
-49.31
-39.43
-26.59
-12.56
0.95
12.86
22.65
30.34
36.0
39.67
41.32
41.02
39.13
36.3
33.22
30.4
27.99
25.78
23.43
20.65
17.35
13.58
9.41
4.9
0.13
-4.64
-9.02
-12.45
-14.44
-14.67
-13.14
-10.25
-6.65
-3.29
-1.29
-1.71
-5.3
-12.16
-21.48
-31.61
-40.41
-45.76
-46.27
-41.56
-32.4
-20.3
-7.04
5.8
17.17
26.63
34.2
40.07
44.42
47.33
48.77
48.78
47.5
45.25
42.47
39.65
37.26
35.8
35.73
37.48
41.3
47.13
54.46
62.28
69.37
74.63
77.51
78.16
77.24
75.41
72.82
68.79
62.01
51.03
34.77
12.88
-14.23
-45.38
-78.69
-111.5
-140.43
-161.81
-172.45
-170.65
-156.78
-133.26
-103.88
-72.52
-42.25
-14.8
9.22
29.87
47.35
61.81
73.52
83.05
91.22
98.94
106.67
113.89
119.22
120.74
116.86
107.18
92.87
76.36
60.43
47.13
37.03
29.18
21.71
12.67
0.83
-13.99
-30.96
-48.67
-65.58
-80.45
-92.59
-102.02
-109.36
-115.59
-121.7
-128.27
-135.27
-142.07
-147.73
-151.22
-151.78
-148.99
-142.87
-133.81
-122.49
-109.75
-96.45
-83.35
-71.08
-60.13
-50.81
-43.26
-37.33
-32.6
-28.4
-24.09
-19.29
-14.05
-8.84
-4.28
-0.86
1.42
2.89
4.05
5.2
6.21
6.59
5.66
2.89
-1.93
-8.63
-16.71
-25.45
-33.88
-40.78
-44.77
-44.56
-39.33
-29.08
-14.65
2.4
20.23
37.18
52.01
63.98
72.75
78.26
80.66
80.27
77.64
73.49
68.55
63.42
58.49
53.95
49.79
45.95
42.37
39.03
35.88
32.81
29.68
26.25
22.36
18.0
13.33
8.64
4.21
0.14
-3.64
-7.47
-11.8
-17.08
-23.63
-31.43
-39.94
-48.04
-54.13
-56.55
-54.01
-46.15
-33.65
-18.17
-1.71
13.8
27.02
37.27
44.46
48.82
50.66
50.3
48.11
44.52
40.06
35.25
30.58
26.36
22.7
19.56
16.8
14.29
11.91
9.65
7.43
5.18
2.77
0.03
-3.07
-6.46
-9.93
-13.23
-16.27
-19.17
-22.35
-26.32
-31.53
-37.94
-44.85
-50.94
-54.52
-54.1
-48.86
-38.95
-25.51
-10.25
5.02
18.85
30.29
38.92
44.65
47.57
47.92
46.08
42.56
37.94
32.77
27.56
22.67
18.32
14.65
11.65
9.17
6.93
4.6
1.93
-1.22
-4.81
-8.68
-12.62
-16.47
-20.19
-23.85
-27.69
-32.01
-37.15
-43.3
-50.35
-57.72
-64.34
-68.71
-69.24
-64.79
-55.03
-40.63
-23.13
-4.42
13.77
30.25
44.41
56.05
65.04
71.16
74.14
73.97
71.12
66.57
61.59
57.35
54.47
52.93
52.2
51.63
50.77
49.64
48.64
48.46
49.89
53.74
60.56
70.46
82.74
95.78
107.15
114.17
114.64
107.44
92.76
71.8
46.22
17.75
-12.0
-41.45
-68.83
-92.34
-110.56
-122.93
-130.03
-133.3
-134.4
-134.55
-134.07
-132.57
-129.38
-124.2
-117.32
-109.52
-101.67
-94.32
-87.48
-80.75
-73.62
-65.82
-57.53
-49.32
-41.94
-36.04
-31.94
-29.5
-28.34
-27.94
-27.99
-28.52
-29.91
-32.69
-37.3
-43.9
-52.05
-60.71
-68.33
-73.1
-73.36
-68.06
-57.15
-41.57
-23.05
-3.64
14.85
31.17
44.73
55.46
63.58
69.3
72.78
74.11
73.44
71.07
67.45
63.16
58.77
54.73
51.19
48.1
45.18
42.09
38.5
34.22
29.2
23.52
17.32
10.72
3.76
-3.56
-11.35
-19.78
-28.98
-39.07
-50.0
-61.34
-72.15
-80.98
-86.03
-85.72
-79.15
-66.53
-49.17
-29.11
-8.51
10.91
28.12
42.7
54.56
63.66
69.87
73.12
73.52
71.48
67.67
62.89
57.84
53.02
48.71
45.0
41.87
39.28
37.08
35.02
32.74
29.85
26.05
21.18
15.32
8.71
1.74
-5.26
-12.07
-18.71
-25.46
-32.73
-40.9
-49.98
-59.37
-67.74
-73.28
-74.2
-69.28
-58.39
-42.54
-23.64
-3.87
14.89
31.38
45.02
55.67
63.33
67.98
69.59
68.4
64.9
59.9
54.31
48.86
43.98
39.75
36.02
32.59
29.32
26.17
23.1
20.02
16.77
13.17
9.11
4.63
-0.07
-4.72
-9.11
-13.2
-17.22
-21.63
-27.02
-33.91
-42.39
-51.94
-61.28
-68.55
-71.78
-69.47
-61.11
-47.39
-30.0
-11.09
7.27
23.58
37.02
47.17
53.95
57.4
57.71
55.38
51.19
46.12
41.11
36.79
33.44
30.91
28.87
26.99
25.01
22.78
20.18
17.05
13.18
8.36
2.57
-3.98
-10.91
-17.77
-24.3
-30.47
-36.59
-43.15
-50.63
-59.29
-68.85
-78.37
-86.18
-90.26
-88.76
-80.67
-66.2
-46.84
-24.9
-2.84
17.38
34.54
48.22
58.45
65.45
69.42
70.62
69.36
66.08
61.35
55.84
50.12
44.61
39.51
34.84
30.47
26.27
22.12
17.95
13.69
9.22
4.38
-0.97
-6.85
-13.11
-19.54
-26.0
-32.54
-39.54
-47.5
-56.8
-67.28
-77.96
-87.09
-92.44
-92.08
-84.98
-71.48
-53.17
-32.46
-11.76
7.05
22.94
35.7
45.57
52.96
58.27
61.82
63.92
64.93
65.17
64.94
64.43
63.68
62.63
61.15
59.11
56.34
52.7
48.09
42.48
35.97
28.8
21.21
13.45
5.64
-2.23
-10.22
-18.45
-27.05
-36.0
-45.13
-53.88
-61.27
-66.04
-66.9
-62.92
-53.98
-40.84
-24.98
-8.13
8.24
23.17
36.19
47.05
55.44
60.88
62.95
61.56
57.22
50.93
44.01
37.68
32.66
29.14
26.79
25.05
23.32
21.15
18.33
14.84
10.8
6.32
1.48
-3.8
-9.58
-15.94
-22.93
-30.6
-38.99
-48.02
-57.28
-65.82
-72.25
-74.9
-72.44
-64.26
-50.89
-33.88
-15.3
2.75
18.73
31.8
41.76
48.81
53.2
55.09
54.56
51.79
47.14
41.28
35.07
29.32
24.57
20.97
18.29
16.07
13.88
11.44
8.76
5.97
3.23
0.6
-2.01
-4.85
-8.2
-12.34
-17.49
-23.81
-31.35
-39.97
-49.21
-58.08
-65.14
-68.71
-67.34
-60.37
-48.21
-32.31
-14.72
2.46
17.68
30.1
39.56
46.24
50.35
52.01
51.32
48.58
44.32
39.33
34.43
30.26
27.05
24.71
22.84
20.93
18.54
15.43
11.61
7.29
2.82
-1.49
-5.47
-9.15
-12.73
-16.53
-20.92
-26.19
-32.6
-40.12
-48.35
-56.3
-62.47
-65.16
-62.97
-55.41
-43.09
-27.61
-11.1
4.4
17.44
27.37
34.12
38.05
39.55
39.01
36.76
33.25
29.1
24.95
21.4
18.82
17.2
16.27
15.62
14.86
13.78
12.21
10.12
7.44
4.12
0.2
-4.22
-8.92
-13.77
-18.75
-24.0
-29.78
-36.42
-44.07
-52.48
-60.87
-67.9
-71.89
-71.26
-65.14
-53.74
-38.36
-21.01
-3.78
11.71
24.64
34.83
42.5
47.85
50.97
51.84
50.51
47.26
42.56
37.06
31.41
26.19
21.79
18.38
15.96
14.32
13.13
11.96
10.37
8.06
4.87
0.84
-3.81
-8.81
-13.94
-19.09
-24.38
-30.08
-36.58
-44.1
-52.47
-60.88
-67.86
-71.61
-70.53
-63.79
-51.68
-35.58
-17.54
0.37
16.5
29.89
40.25
47.64
52.34
54.63
54.83
53.32
50.56
47.07
43.33
39.7
36.36
33.35
30.59
28.0
25.56
23.28
21.17
19.06
16.62
13.5
9.46
4.51
-0.98
-6.48
-11.53
-15.97
-20.02
-24.24
-29.35
-35.82
-43.75
-52.57
-61.05
-67.49
-70.19
-67.87
-60.12
-47.57
-31.74
-14.54
2.26
17.34
30.01
40.0
47.21
51.6
53.12
51.97
48.64
43.92
38.69
33.65
29.12
25.12
21.46
18.06
15.0
12.53
10.81
9.76
8.96
7.83
5.86
2.88
-0.94
-5.2
-9.47
-13.57
-17.55
-21.75
-26.6
-32.5
-39.58
-47.64
-55.86
-62.96
-67.35
-67.49
-62.48
-52.35
-38.13
-21.51
-4.42
11.51
25.12
35.77
43.19
47.33
48.37
46.69
42.91
37.88
32.5
27.52
23.43
20.33
18.13
16.61
15.57
14.85
14.32
13.76
12.87
11.26
8.67
5.01
0.45
-4.61
-9.76
-14.69
-19.29
-23.71
-28.17
-33.03
-38.64
-45.18
-52.55
-60.04
-66.41
-70.01
-69.26
-63.19
-51.93
-36.66
-19.3
-1.93
13.74
26.72
36.64
43.59
47.79
49.49
49.01
46.76
43.35
39.42
35.54
32.06
29.05
26.43
24.02
21.74
19.6
17.67
15.95
14.27
12.28
9.51
5.6
0.48
-5.57
-11.91
-17.83
-22.83
-26.85
-30.34
-34.12
-39.02
-45.49
-53.3
-61.46
-68.34
-72.14
-71.31
-65.13
-53.89
-38.8
-21.65
-4.3
11.7
25.48
36.61
45.05
50.87
54.11
54.87
53.38
50.14
45.85
41.26
36.94
33.16
29.86
26.86
24.01
21.35
19.03
17.18
15.72
14.27
12.33
9.44
5.44
0.55
-4.73
-9.82
-14.32
-18.19
-21.74
-25.56
-30.3
-36.4
-43.81
-51.9
-59.41
-64.8
-66.41
-63.14
-54.64
-41.56
-25.35
-7.93
8.89
23.69
35.66
44.49
50.2
52.94
53.01
50.85
47.09
42.46
37.7
33.24
29.31
25.86
22.74
19.87
17.26
15.01
13.15
11.55
9.93
8.02
5.58
2.55
-0.89
-4.5
-8.06
-11.51
-14.87
-18.36
-22.26
-26.87
-32.44
-39.12
-46.67
-54.35
-60.86
-64.6
-64.05
-58.38
-47.75
-33.4
-17.2
-1.12
13.34
25.36
34.76
41.58
45.89
47.63
46.82
43.73
39.01
33.55
28.24
23.65
19.93
16.93
14.36
12.04
9.87
7.91
6.14
4.48
2.77
0.8
-1.51
-4.21
-7.16
-10.29
-13.56
-17.05
-21.02
-25.79
-31.69
-38.8
-46.77
-54.66
-60.98
-64.06
-62.5
-55.72
-44.2
-29.43
-13.41
1.93
15.2
25.7
33.28
38.01
40.03
39.48
36.6
31.96
26.33
20.62
15.52
11.44
8.41
6.23
4.67
3.51
2.61
1.77
0.75
-0.74
-2.92
-5.9
-9.62
-13.89
-18.56
-23.55
-28.97
-35.03
-42.03
-50.05
-58.82
-67.46
-74.5
-78.15
-76.91
-69.95
-57.55
-41.09
-22.55
-4.04
12.77
26.86
37.84
45.69
50.53
52.53
51.93
49.16
44.86
39.78
34.63
29.92
25.88
22.45
19.43
16.59
13.7
10.73
7.7
4.71
1.82
-0.94
-3.7
-6.69
-10.24
-14.64
-20.22
-27.2
-35.62
-45.19
-55.11
-63.97
-70.02
-71.52
-67.43
-57.74
-43.63
-27.01
-10.0
5.7
19.14
29.99
38.27
44.04
47.26
47.85
45.96
42.06
36.95
31.59
26.86
23.22
20.7
18.93
17.38
15.6
13.43
11.0
8.55
6.24
3.94
1.27
-2.29
-7.22
-13.73
-21.76
-31.01
-40.98
-50.93
-59.81
-66.22
-68.7
-66.08
-57.95
-44.94
-28.58
-10.86
6.28
21.48
34.01
43.64
50.34
54.07
54.82
52.76
48.4
42.66
36.61
31.22
27.06
24.25
22.48
21.21
19.92
18.3
16.19
13.59
10.56
7.09
3.12
-1.48
-6.82
-12.98
-19.97
-27.83
-36.54
-46.03
-55.9
-65.24
-72.65
-76.33
-74.76
-67.1
-53.68
-35.93
-16.07
3.62
21.28
35.84
46.85
54.42
58.8
60.28
59.29
56.32
52.07
47.24
42.48
38.21
34.58
31.61
29.14
27.02
25.06
23.05
20.75
17.93
14.43
10.31
5.77
1.11
-3.46
-7.88
-12.38
-17.31
-23.12
-30.12
-38.43
-47.71
-57.04
-64.9
-69.4
-68.77
-61.99
-49.28
-32.12
-12.87
6.02
22.61
35.85
45.5
51.74
54.9
55.32
53.38
49.6
44.69
39.43
34.52
30.36
27.1
24.66
22.79
21.21
19.63
17.83
15.59
12.76
9.27
5.12
0.37
-4.86
-10.41
-16.11
-21.88
-27.66
-33.58
-39.94
-47.08
-55.19
-63.97
-72.45
-79.03
-81.82
-79.32
-70.91
-57.12
-39.43
-19.71
0.31
19.39
36.7
51.58
63.39
71.48
75.49
75.56
72.44
67.34
61.51
55.92
51.01
46.76
42.91
39.18
35.5
31.94
28.65
25.64
22.72
19.44
15.26
9.8
3.0
-4.79
-12.89
-20.57
-27.3
-33.02
-38.05
-43.08
-48.87
-55.96
-64.46
-73.89
-83.14
-90.54
-94.19
-92.47
-84.55
-70.68
-52.27
-31.46
-10.49
8.91
25.8
39.99
51.66
60.97
67.83
71.99
73.29
71.98
68.8
64.81
61.09
58.36
56.75
55.86
55.02
53.63
51.4
48.43
45.01
41.46
37.79
33.74
28.84
22.67
15.12
6.58
-2.22
-10.41
-17.38
-22.95
-27.49
-31.66
-36.18
-41.61
-48.28
-56.22
-65.23
-74.65
-83.38
-89.78
-92.02
-88.61
-78.92
-63.55
-44.13
-22.92
-2.1
16.76
32.86
46.03
56.36
63.98
68.9
71.13
70.94
68.87
65.66
62.08
58.68
55.72
53.18
50.92
48.85
46.85
44.9
42.86
40.56
37.76
34.27
30.07
25.31
20.24
15.18
10.25
5.46
0.65
-4.41
-9.83
-15.55
-21.32
-26.8
-31.7
-35.97
-39.8
-43.63
-48.06
-53.66
-60.68
-68.88
-77.28
-84.22
-87.71
-85.98
-78.1
-64.29
-46.04
-25.54
-5.11
13.41
28.96
41.21
50.26
56.39
59.81
60.8
59.74
57.23
53.99
50.71
47.84
45.5
43.57
41.86
40.3
38.96
38.02
37.57
37.44
37.23
36.42
34.59
31.56
27.51
22.82
17.94
13.17
8.6
4.08
-0.67
-5.92
-11.75
-18.0
-24.28
-30.17
-35.3
-39.64
-43.49
-47.44
-52.11
-57.97
-64.99
-72.5
-79.26
-83.55
-83.67
-78.42
-67.53
-51.84
-33.15
-13.64
4.66
20.41
33.02
42.47
48.99
52.75
53.86
52.52
49.18
44.59
39.66
35.19
31.63
29.04
27.22
25.85
24.7
23.64
22.6
21.47
20.13
18.45
16.41
14.06
11.51
8.81
5.92
2.64
-1.22
-5.76
-10.87
-16.24
-21.46
-26.18
-30.31
-33.97
-37.55
-41.5
-46.31
-52.26
-59.35
-67.12
-74.5
-79.93
-81.65
-78.2
-68.95
-54.45
-36.32
-16.86
1.74
17.86
30.8
40.54
47.43
51.77
53.73
53.43
51.19
47.6
43.48
39.63
36.58
34.48
33.16
32.33
31.75
31.33
31.07
30.94
30.73
30.16
28.81
26.41
22.85
18.31
13.17
7.88
2.77
-2.06
-6.77
-11.68
-17.0
-22.67
-28.39
-33.72
-38.34
-42.31
-46.04
-50.22
-55.55
-62.37
-70.48
-78.98
-86.41
-90.95
-90.88
-85.06
-73.34
-56.66
-36.85
-16.1
3.56
20.79
34.99
46.13
54.41
60.07
63.15
63.73
62.03
58.56
53.97
48.99
44.19
39.88
36.17
33.1
30.75
29.17
28.37
28.13
28.06
27.6
26.31
23.98
20.7
16.81
12.66
8.5
4.34
0.07
-4.51
-9.44
-14.57
-19.62
-24.23
-28.17
-31.43
-34.19
-36.9
-40.12
-44.39
-50.0
-56.76
-63.86
-69.9
-73.08
-71.74
-64.8
-52.21
-34.9
-14.6
6.66
26.99
44.97
59.81
71.22
79.34
84.59
87.6
89.04
89.52
89.54
89.41
89.29
89.23
89.29
89.49
89.93
90.96
93.13
97.23
103.86
112.93
123.27
132.65
138.3
137.84
129.99
114.95
94.1
69.37
42.66
15.48
-10.9
-35.42
-57.1
-75.3
-89.89
-101.36
-110.74
-119.18
-127.68
-136.88
-146.79
-156.79
-165.66
-171.71
-173.33
-169.49
-160.22
-146.73
-131.1
-115.68
-102.44
-92.67
-86.86
-84.77
-85.47
-87.33
-88.15
-85.61
-78.08
-65.38
-49.1
-32.17
-17.81
-8.35
-4.49
-5.19
-8.15
-10.56
-9.85
-4.53
5.46
18.39
31.27
40.64
43.89
40.15
30.43
17.03
2.34
-12.12
-26.01
-39.79
-53.99
-68.68
-83.22
-96.45
-106.89
-112.93
-113.12
-106.33
-92.19
-71.35
-45.43
-16.65
12.64
40.51
65.64
87.11
104.2
116.24
122.66
123.14
117.84
107.39
92.9
75.74
57.47
39.59
23.39
9.67
-1.37
-10.16
-17.46
-24.09
-30.62
-37.31
-44.22
-51.42
-59.07
-67.27
-75.91
-84.58
-92.6
-99.38
-104.68
-108.8
-112.55
-116.9
-122.73
-130.53
-140.26
-151.32
-162.52
-172.17
-178.33
-179.28
-173.98
-162.47
-145.69
-125.2
-102.58
-79.0
-55.15
-31.5
-8.61
12.68
31.44
46.87
58.7
67.19
72.99
76.91
79.66
81.69
83.2
84.3
85.06
85.61
86.2
87.01
88.01
88.87
88.98
87.6
84.19
78.61
71.22
62.68
53.73
44.83
36.08
27.16
17.51
6.5
-6.34
-21.16
-37.58
-54.55
-70.34
-82.81
-89.8
-89.78
-82.26
-67.97
-48.59
-26.19
-2.74
20.26
41.86
61.41
78.41
92.38
102.85
109.58
112.69
112.68
110.37
106.66
102.32
97.8
93.23
88.6
83.93
79.42
75.38
72.08
69.49
67.25
64.64
61.0
55.92
49.44
42.03
34.27
26.69
19.38
12.13
4.51
-3.99
-13.74
-24.99
-37.64
-51.16
-64.39
-75.58
-82.67
-83.92
-78.49
-66.75
-50.2
-30.96
-11.1
7.85
25.01
39.95
52.39
62.05
68.69
72.31
73.33
72.53
70.85
69.03
67.46
66.14
64.84
63.41
61.84
60.34
59.1
58.1
56.89
54.7
50.63
44.06
34.91
23.72
11.57
-0.31
-10.93
-19.93
-27.54
-34.59
-42.1
-50.92
-61.3
-72.64
-83.42
-91.39
-94.13
-89.86
-78.11
-59.95
-37.64
-13.83
9.43
31.25
51.76
71.62
91.17
110.06
127.24
141.44
151.76
157.98
160.62
160.65
159.06
156.52
153.26
149.27
144.47
138.97
133.11
127.3
121.66
115.87
109.12
100.43
89.18
75.38
59.85
43.89
28.8
15.4
3.79
-6.59
-16.73
-27.55
-39.63
-52.91
-66.62
-79.3
-89.19
-94.6
-94.36
-88.14
-76.55
-60.94
-43.08
-24.74
-7.4
7.86
20.34
29.51
34.92
36.13
32.83
25.02
13.21
-1.54
-17.78
-33.98
-48.9
-61.78
-72.34
-80.55
-86.42
-89.86
-90.77
-89.22
-85.7
-81.16
-76.76
-73.59
-72.3
-72.9
-74.89
-77.47
-79.98
-82.19
-84.32
-86.96
-90.74
-96.07
-102.79
-110.04
-116.33
-119.72
-118.34
-110.85
-96.99
-77.57
-54.37
-29.51
-4.89
18.15
38.93
57.12
72.55
84.93
94.04
99.84
102.68
103.25
102.4
100.87
99.09
97.15
94.91
92.22
89.08
85.61
82.06
78.49
74.75
70.39
64.87
57.84
49.38
39.92
30.2
20.81
12.1
3.95
-4.07
-12.47
-21.71
-31.94
-42.99
-54.32
-64.92
-73.5
-78.59
-79.03
-74.28
-64.71
-51.45
-36.16
-20.44
-5.55
7.74
19.09
28.32
35.27
39.86
42.13
42.38
41.21
39.32
37.35
35.69
34.47
33.57
32.89
32.33
31.97
31.82
31.78
31.5
30.48
28.19
24.31
18.94
12.6
6.06
0.02
-5.15
-9.65
-14.11
-19.42
-26.39
-35.5
-46.6
-58.88
-70.91
-80.84
-86.81
-87.48
-82.31
-71.77
-57.15
-40.21
-22.65
-5.78
9.6
23.13
34.63
43.96
50.88
55.25
57.05
56.64
54.61
51.73
48.71
45.97
43.64
41.63
39.89
38.46
37.5
37.12
37.15
37.13
36.4
34.34
30.67
25.54
19.47
13.08
6.89
1.07
-4.53
-10.41
-17.18
-25.42
-35.43
-47.05
-59.47
-71.33
-80.85
-86.33
-86.6
-81.32
-71.19
-57.58
-42.17
-26.41
-11.3
2.67
15.27
26.33
35.56
42.6
47.17
49.27
49.3
47.91
45.9
43.94
42.37
41.18
40.05
38.64
36.65
34.07
31.02
27.8
24.6
21.45
18.13
14.31
9.69
4.16
-2.09
-8.64
-15.0
-20.82
-26.05
-30.9
-35.79
-41.17
-47.4
-54.64
-62.72
-71.11
-78.85
-84.63
-87.01
-84.87
-77.71
-65.98
-50.92
-34.17
-17.38
-1.68
12.34
24.51
34.75
42.9
48.65
51.71
52.08
50.21
46.92
43.16
39.71
36.96
34.9
33.24
31.64
29.92
28.1
26.33
24.73
23.24
21.63
19.54
16.63
12.77
8.1
3.01
-2.05
-6.69
-10.82
-14.58
-18.33
-22.49
-27.39
-33.28
-40.25
-48.24
-56.9
-65.49
-72.78
-77.28
-77.61
-73.01
-63.68
-50.78
-36.08
-21.28
-7.6
4.45
14.88
23.78
31.07
36.38
39.36
39.94
38.57
36.11
33.5
31.44
30.09
29.2
28.28
27.01
25.31
23.39
21.52
19.86
18.3
16.53
14.13
10.83
6.66
1.86
-3.15
-7.97
-12.42
-16.56
-20.58
-24.8
-29.45
-34.74
-40.83
-47.83
-55.72
-64.17
-72.33
-78.88
-82.18
-80.92
-74.48
-63.31
-48.81
-32.85
-17.12
-2.78
9.76
20.51
29.55
36.77
41.87
44.63
45.03
43.51
40.81
37.77
35.08
33.11
31.86
31.06
30.34
29.43
28.25
26.9
25.54
24.27
22.95
21.24
18.69
14.93
9.85
3.68
-3.14
-10.03
-16.58
-22.63
-28.24
-33.66
-39.22
-45.24
-51.94
-59.37
-67.19
-74.64
-80.46
-83.17
-81.54
-75.03
-64.06
-49.94
-34.39
-19.1
-5.23
6.7
16.6
24.57
30.63
34.68
36.62
36.51
34.74
32.01
29.14
26.89
25.68
25.5
25.94
26.47
26.62
26.26
25.57
24.9
24.49
24.3
24.0
23.12
21.27
18.36
14.63
10.58
6.67
3.18
0.03
-3.18
-7.01
-11.87
-17.97
-25.24
-33.38
-41.91
-50.17
-57.26
-62.07
-63.48
-60.73
-53.74
-43.23
-30.59
-17.36
-4.79
6.43
16.17
24.45
31.26
36.32
39.3
40.0
38.66
35.95
32.77
29.94
27.92
26.7
25.89
25.09
24.0
22.62
21.18
19.85
18.71
17.57
16.15
14.16
11.45
8.11
4.38
0.56
-3.14
-6.73
-10.48
-14.79
-20.1
-26.61
-34.24
-42.46
-50.47
-57.26
-61.81
-63.26
-61.09
-55.24
-46.16
-34.77
-22.26
-9.8
1.64
11.48
19.35
25.15
28.77
30.27
29.8
27.77
24.8
21.56
18.61
16.22
14.35
12.72
11.08
9.2
7.12
4.94
2.8
0.69
-1.55
-4.14
-7.3
-11.04
-15.14
-19.15
-22.63
-25.32
-27.28
-28.93
-30.93
-33.94
-38.33
-44.06
-50.59
-56.88
-61.63
-63.52
-61.57
-55.42
-45.49
-32.9
-19.1
-5.49
6.86
17.39
25.9
32.34
36.76
39.17
39.72
38.67
36.49
33.7
30.71
27.75
24.84
21.87
18.79
15.67
12.7
10.16
8.17
6.63
5.18
3.35
0.7
-2.96
-7.51
-12.57
-17.63
-22.38
-26.71
-30.92
-35.46
-40.84
-47.42
-55.13
-63.48
-71.42
-77.6
-80.56
-79.13
-72.84
-62.05
-47.91
-32.02
-15.98
-0.92
12.49
24.07
33.78
41.5
47.07
50.34
51.42
50.69
48.82
46.45
44.0
41.56
38.96
35.99
32.6
29.03
25.7
22.97
20.89
19.13
17.07
14.07
9.8
4.36
-1.76
-7.92
-13.69
-18.94
-23.95
-29.26
-35.4
-42.74
-51.29
-60.55
-69.53
-76.82
-80.85
-80.4
-74.94
-64.87
-51.43
-36.23
-20.8
-6.17
7.13
18.94
29.15
37.5
43.68
47.47
49.01
48.79
47.55
46.02
44.63
43.46
42.32
40.98
39.37
37.64
36.06
34.82
33.84
32.74
30.96
28.01
23.68
18.18
12.06
5.9
0.15
-5.15
-10.27
-15.7
-21.97
-29.42
-38.08
-47.57
-57.05
-65.24
-70.62
-71.84
-68.14
-59.68
-47.49
-33.17
-18.32
-4.16
8.69
19.96
29.49
37.03
42.26
45.0
45.47
44.32
42.44
40.63
39.31
38.44
37.64
36.44
34.57
32.08
29.17
26.15
23.14
20.01
16.51
12.39
7.58
2.22
-3.39
-8.88
-14.02
-18.69
-23.04
-27.34
-32.09
-37.88
-45.16
-54.06
-63.96
-73.58
-81.07
-84.58
-82.89
-75.8
-64.25
-49.8
-34.15
-18.59
-3.83
9.85
22.29
33.19
42.02
48.32
51.86
52.9
52.14
50.43
48.52
46.84
45.43
44.11
42.71
41.22
39.76
38.52
37.52
36.55
35.14
32.75
29.04
23.92
17.6
10.57
3.32
-3.72
-10.26
-16.29
-22.01
-27.8
-34.17
-41.58
-50.22
-59.72
-69.12
-76.89
-81.3
-80.95
-75.17
-64.32
-49.66
-32.89
-15.69
0.73
15.73
29.11
40.8
50.65
58.39
63.73
66.48
66.81
65.24
62.57
59.61
56.93
54.76
52.97
51.25
49.32
47.11
44.73
42.37
40.11
37.78
35.0
31.34
26.5
20.58
13.98
7.29
1.03
-4.61
-9.79
-15.0
-20.8
-27.65
-35.79
-45.22
-55.58
-66.13
-75.71
-82.8
-85.88
-83.84
-76.44
-64.32
-48.98
-32.2
-15.55
-0.09
13.66
25.54
35.44
43.16
48.43
51.16
51.57
50.29
48.17
46.02
44.31
43.08
42.01
40.75
39.13
37.29
35.58
34.27
33.35
32.43
30.9
28.21
24.16
18.97
13.17
7.38
2.02
-2.81
-7.4
-12.25
-17.93
-24.9
-33.41
-43.29
-53.87
-63.97
-72.08
-76.64
-76.53
-71.34
-61.59
-48.53
-33.72
-18.6
-4.19
9.0
20.69
30.71
38.7
44.24
47.02
47.18
45.34
42.49
39.7
37.71
36.75
36.53
36.49
36.12
35.16
33.6
31.62
29.36
26.81
23.81
20.13
15.61
10.28
4.32
-1.9
-8.01
-13.66
-18.69
-23.18
-27.47
-32.09
-37.67
-44.71
-53.35
-63.16
-73.09
-81.5
-86.63
-87.02
-81.97
-71.79
-57.69
-41.41
-24.69
-8.88
5.26
17.44
27.65
35.9
42.15
46.33
48.49
48.86
47.9
46.19
44.28
42.59
41.36
40.6
40.23
40.12
40.13
40.11
39.93
39.36
38.14
36.0
32.68
28.07
22.23
15.45
8.16
0.87
-6.01
-12.29
-18.05
-23.58
-29.34
-35.8
-43.3
-51.94
-61.37
-70.74
-78.73
-83.74
-84.4
-79.94
-70.53
-57.26
-41.79
-25.81
-10.59
3.25
15.57
26.46
35.91
43.62
49.18
52.25
52.89
51.6
49.21
46.61
44.41
42.81
41.58
40.35
38.83
36.98
35.0
33.18
31.66
30.33
28.81
26.64
23.39
18.95
13.51
7.45
1.3
-4.58
-10.05
-15.2
-20.33
-25.76
-31.82
-38.73
-46.6
-55.3
-64.33
-72.68
-79.01
-81.82
-79.95
-73.06
-61.7
-47.28
-31.48
-15.84
-1.31
11.74
23.28
33.29
41.54
47.67
51.39
52.77
52.3
50.74
48.85
47.12
45.64
44.22
42.52
40.27
37.44
34.2
30.81
27.56
24.6
21.86
19.06
15.87
12.03
7.48
2.44
-2.67
-7.42
-11.52
-14.98
-18.16
-21.54
-25.65
-30.85
-37.27
-44.8
-53.05
-61.25
-68.26
-72.71
-73.29
-69.19
-60.48
-48.1
-33.61
-18.69
-4.62
7.9
18.65
27.6
34.62
39.48
41.95
42.13
40.46
37.69
34.73
32.28
30.69
29.86
29.38
28.74
27.57
25.78
23.59
21.32
19.24
17.34
15.35
12.83
9.4
4.96
-0.28
-5.84
-11.22
-16.07
-20.32
-24.23
-28.26
-32.9
-38.58
-45.52
-53.66
-62.54
-71.25
-78.51
-82.83
-82.9
-77.97
-68.18
-54.55
-38.67
-22.25
-6.66
7.34
19.44
29.58
37.67
43.5
46.86
47.78
46.65
44.21
41.32
38.73
36.81
35.5
34.47
33.29
31.73
29.78
27.7
25.82
24.34
23.15
21.84
19.9
16.88
12.67
7.57
2.08
-3.23
-8.06
-12.42
-16.63
-21.15
-26.42
-32.76
-40.35
-49.11
-58.61
-67.95
-75.81
-80.6
-80.97
-76.22
-66.59
-53.21
-37.75
-21.95
-7.05
6.26
17.79
27.57
35.55
41.56
45.33
46.76
46.14
44.1
41.47
39.0
37.06
35.62
34.37
32.95
31.25
29.39
27.61
26.18
25.07
24.02
22.61
20.38
17.09
12.78
7.73
2.38
-2.85
-7.69
-12.1
-16.3
-20.71
-25.8
-31.98
-39.5
-48.26
-57.71
-66.82
-74.16
-78.17
-77.64
-72.07
-61.89
-48.36
-33.16
-17.87
-3.62
9.05
19.98
29.16
36.43
41.6
44.44
45.06
43.88
41.63
39.13
37.04
35.68
35.0
34.68
34.38
33.86
33.04
31.96
30.66
29.07
27.04
24.36
20.87
16.51
11.41
5.82
0.14
-5.2
-9.89
-13.9
-17.49
-21.2
-25.7
-31.5
-38.8
-47.3
-56.16
-64.14
-69.8
-71.82
-69.36
-62.28
-51.19
-37.4
-22.45
-7.84
5.36
16.58
25.62
32.46
37.1
39.5
39.75
38.2
35.49
32.48
29.92
28.19
27.18
26.46
25.56
24.27
22.73
21.32
20.34
19.69
18.92
17.33
14.31
9.69
3.79
-2.65
-8.86
-14.31
-18.94
-23.12
-27.42
-32.44
-38.57
-45.95
-54.37
-63.2
-71.45
-77.67
-80.37
-78.32
-71.09
-59.21
-44.15
-27.79
-11.86
2.51
14.94
25.47
34.2
41.07
45.8
48.2
48.37
46.87
44.53
42.19
40.29
38.88
37.67
36.32
34.67
32.81
30.95
29.22
27.52
25.54
22.9
19.29
14.66
9.18
3.24
-2.73
-8.37
-13.58
-18.45
-23.28
-28.55
-34.68
-42.03
-50.66
-60.19
-69.65
-77.55
-82.19
-82.14
-76.75
-66.37
-52.25
-36.13
-19.61
-3.89
10.39
22.95
33.6
42.09
48.17
51.72
52.93
52.33
50.65
48.6
46.68
45.06
43.59
42.07
40.33
38.37
36.36
34.49
32.78
31.05
28.85
25.76
21.45
15.98
9.68
3.15
-2.98
-8.32
-12.8
-16.74
-20.71
-25.36
-31.27
-38.71
-47.51
-56.97
-65.78
-72.33
-75.08
-72.98
-65.89
-54.58
-40.48
-25.19
-10.02
4.17
17.02
28.35
37.96
45.52
50.65
53.19
53.29
51.54
48.79
45.89
43.42
41.54
40.03
38.56
36.84
34.94
33.13
31.72
30.81
30.11
29.03
26.91
23.39
18.52
12.74
6.73
1.05
-4.02
-8.61
-13.11
-17.99
-23.72
-30.57
-38.61
-47.57
-56.81
-65.29
-71.6
-74.32
-72.36
-65.4
-53.97
-39.35
-23.22
-7.09
7.98
21.38
32.88
42.27
49.29
53.67
55.37
54.7
52.33
49.17
46.03
43.46
41.54
40.08
38.76
37.37
35.88
34.45
33.27
32.33
31.42
30.12
27.99
24.75
20.42
15.34
10.01
4.88
0.09
-4.5
-9.4
-15.18
-22.38
-31.26
-41.7
-53.12
-64.4
-74.06
-80.47
-82.35
-79.08
-71.0
-59.25
-45.49
-31.29
-17.85
-5.77
4.74
13.69
21.01
26.57
30.31
32.31
32.95
32.76
32.35
32.13
32.19
32.33
32.18
31.42
29.91
27.78
25.3
22.72
20.09
17.23
13.78
9.32
3.71
-2.94
-10.12
-17.15
-23.4
-28.53
-32.67
-36.33
-40.26
-45.18
-51.62
-59.6
-68.57
-77.34
-84.28
-87.67
-86.16
-79.22
-67.37
-52.0
-34.92
-17.81
-1.83
12.5
25.06
35.84
44.73
51.46
55.81
57.76
57.62
55.99
53.6
51.09
48.82
46.8
44.84
42.67
40.13
37.34
34.53
31.98
29.78
27.74
25.45
22.39
18.25
13.06
7.21
1.34
-3.99
-8.5
-12.37
-16.13
-20.53
-26.28
-33.76
-42.91
-53.15
-63.32
-71.92
-77.3
-78.12
-73.68
-64.23
-50.84
-35.2
-19.04
-3.74
9.97
21.82
31.91
40.26
46.78
51.25
53.53
53.76
52.38
50.08
47.57
45.3
43.43
41.8
40.16
38.36
36.47
34.73
33.3
32.16
31.0
29.28
26.52
22.51
17.39
11.59
5.69
0.14
-4.86
-9.48
-14.09
-19.23
-25.36
-32.83
-41.64
-51.35
-60.99
-69.14
-74.15
-74.63
-69.9
-60.26
-46.96
-31.72
-16.36
-2.15
10.16
20.36
28.46
34.44
38.27
39.96
39.79
38.28
36.14
34.06
32.49
31.51
30.97
30.53
29.98
29.27
28.48
27.67
26.83
25.66
23.75
20.71
16.39
10.99
4.94
-1.19
-6.97
-12.23
-17.16
-22.17
-27.79
-34.47
-42.39
-51.25
-60.2
-67.93
-72.86
-73.58
-69.4
-60.52
-48.04
-33.57
-18.71
-4.71
7.81
18.59
27.53
34.49
39.25
41.73
42.14
41.06
39.27
37.46
36.02
34.88
33.68
32.06
29.86
27.29
24.78
22.7
21.12
19.7
17.81
14.85
10.57
5.13
-0.9
-6.86
-12.28
-17.03
-21.4
-25.89
-31.08
-37.49
-45.44
-54.93
-65.46
-75.91
-84.63
-89.73
-89.69
-83.89
-72.9
-58.31
-42.11
-26.07
-11.28
1.87
13.45
23.52
31.92
38.28
42.33
44.1
44.05
42.9
41.33
39.77
38.26
36.58
34.51
32.02
29.36
26.96
25.18
24.07
23.37
22.48
20.76
17.77
13.47
8.21
2.57
-2.85
-7.72
-12.14
-16.54
-21.57
-27.8
-35.48
-44.3
-53.41
-61.45
-66.91
-68.42
-65.19
-57.19
-45.21
-30.67
-15.19
-0.18
13.37
25.03
34.7
42.43
48.24
52.07
53.84
53.64
51.82
48.95
45.68
42.54
39.81
37.48
35.39
33.4
31.46
29.65
28.06
26.67
25.25
23.44
20.83
17.18
12.5
7.08
1.41
-4.02
-8.96
-13.49
-17.99
-23.05
-29.22
-36.78
-45.63
-55.18
-64.29
-71.51
-75.32
-74.62
-68.96
-58.85
-45.58
-30.75
-15.87
-1.98
10.45
21.31
30.58
38.11
43.66
47.02
48.27
47.76
46.11
43.94
41.67
39.41
37.05
34.49
31.78
29.2
27.14
25.86
25.23
24.8
23.88
21.94
18.8
14.66
10.06
5.53
1.38
-2.37
-5.98
-9.9
-14.53
-20.22
-27.19
-35.46
-44.7
-54.2
-62.77
-69.01
-71.61
-69.75
-63.37
-53.2
-40.42
-26.44
-12.43
0.75
12.6
22.77
30.92
36.77
40.13
41.05
40.02
37.81
35.31
33.22
31.82
30.99
30.3
29.28
27.75
25.83
23.86
22.16
20.75
19.29
17.2
13.88
9.09
3.09
-3.46
-9.71
-15.05
-19.38
-23.16
-27.19
-32.32
-39.09
-47.58
-57.3
-67.31
-76.25
-82.57
-84.9
-82.31
-74.7
-62.85
-48.27
-32.7
-17.68
-4.14
7.59
17.57
26.0
32.88
38.08
41.41
42.91
42.92
42.08
41.05
40.29
39.94
39.75
39.34
38.42
36.96
35.19
33.42
31.82
30.25
28.28
25.35
21.13
15.63
9.32
2.93
-2.87
-7.79
-11.98
-15.98
-20.49
-26.08
-33.05
-41.36
-50.58
-59.82
-67.77
-72.9
-73.85
-69.89
-61.19
-48.87
-34.61
-20.06
-6.42
5.8
16.59
26.08
34.29
40.96
45.79
48.62
49.63
49.32
48.37
47.31
46.44
45.72
44.96
43.89
42.4
40.53
38.52
36.56
34.79
33.17
31.4
29.06
25.78
21.37
15.94
9.92
3.9
-1.68
-6.62
-11.06
-15.41
-20.19
-25.89
-32.84
-41.15
-50.49
-60.02
-68.36
-73.88
-75.1
-71.24
-62.52
-50.14
-35.81
-21.23
-7.55
4.72
15.52
24.89
32.61
38.33
41.67
42.59
41.5
39.2
36.58
34.28
32.51
31.13
29.77
28.16
26.28
24.34
22.64
21.42
20.6
19.9
18.84
17.0
14.17
10.47
6.28
2.09
-1.73
-5.09
-8.2
-11.52
-15.54
-20.61
-26.92
-34.35
-42.55
-50.8
-58.01
-62.84
-64.04
-60.78
-53.07
-41.81
-28.49
-14.72
-1.76
9.69
19.37
27.22
33.07
36.7
37.95
36.99
34.35
30.9
27.49
24.72
22.85
21.67
20.82
19.92
18.8
17.5
16.23
15.18
14.28
13.21
11.44
8.51
4.26
-1.03
-6.8
-12.39
-17.38
-21.71
-25.64
-29.6
-34.07
-39.42
-45.86
-53.29
-61.13
-68.29
-73.26
-74.55
-71.17
-63.02
-51.0
-36.67
-21.7
-7.49
5.21
16.11
25.25
32.7
38.52
42.67
45.19
46.22
46.03
45.01
43.55
41.96
40.39
38.82
37.14
35.21
33.07
30.83
28.64
26.49
24.13
21.09
16.91
11.41
4.77
-2.4
-9.4
-15.61
-20.8
-25.17
-29.26
-33.74
-39.22
-46.03
-54.08
-62.77
-71.02
-77.37
-80.34
-78.81
-72.44
-61.79
-48.15
-33.12
-18.17
-4.28
8.1
18.87
27.98
35.34
40.78
44.17
45.61
45.46
44.33
42.89
41.66
40.86
40.35
39.83
39.04
37.92
36.64
35.5
34.66
34.01
33.09
31.34
28.29
23.82
18.14
11.73
5.13
-1.27
-7.34
-13.17
-18.98
-25.07
-31.7
-39.03
-47.06
-55.48
-63.54
-70.02
-73.51
-72.78
-67.29
-57.39
-44.34
-29.78
-15.26
-1.8
10.17
20.58
29.37
36.33
41.12
43.55
43.8
42.46
40.37
38.29
36.55
35.07
33.45
31.32
28.55
25.38
22.24
19.49
17.22
15.24
13.11
10.45
7.03
2.99
-1.3
-5.37
-8.84
-11.61
-13.92
-16.28
-19.33
-23.64
-29.5
-36.84
-45.09
-53.18
-59.75
-63.42
-63.08
-58.36
-49.63
-37.94
-24.71
-11.29
1.32
12.47
21.82
29.12
34.14
36.75
37.07
35.55
32.93
30.02
27.42
25.38
23.79
22.33
20.69
18.81
16.87
15.16
13.91
13.05
12.23
10.85
8.39
4.63
-0.23
-5.64
-10.9
-15.58
-19.59
-23.31
-27.36
-32.42
-38.91
-46.81
-55.63
-64.33
-71.47
-75.56
-75.37
-70.41
-61.05
-48.52
-34.41
-20.21
-7.0
4.78
15.05
23.84
31.06
36.46
39.78
40.98
40.38
38.58
36.27
33.97
31.9
30.01
28.16
26.27
24.44
22.9
21.82
21.11
20.38
19.07
16.62
12.79
7.84
2.29
-3.19
-8.17
-12.53
-16.6
-20.94
-26.11
-32.58
-40.49
-49.6
-59.15
-67.91
-74.34
-76.96
-74.72
-67.45
-55.87
-41.4
-25.7
-10.2
4.13
16.82
27.67
36.55
43.35
47.95
50.42
51.06
50.39
48.96
47.2
45.36
43.47
41.5
39.41
37.23
35.11
33.19
31.54
30.04
28.37
26.12
22.86
18.45
13.01
6.95
0.8
-5.04
-10.38
-15.38
-20.43
-26.0
-32.5
-40.14
-48.64
-57.23
-64.63
-69.29
-69.86
-65.65
-56.91
-44.74
-30.74
-16.42
-2.85
9.43
20.3
29.67
37.28
42.78
45.96
46.9
46.14
44.45
42.55
40.9
39.5
38.14
36.54
34.64
32.61
30.76
29.34
28.31
27.4
26.08
23.83
20.38
15.8
10.5
5.04
-0.06
-4.56
-8.6
-12.59
-17.08
-22.63
-29.54
-37.77
-46.84
-55.75
-63.08
-67.26
-66.98
-61.68
-51.77
-38.58
-23.89
-9.41
3.71
14.92
24.15
31.45
36.78
40.01
41.1
40.32
38.35
36.02
34.07
32.83
32.17
31.6
30.65
29.12
27.14
25.04
23.13
21.39
19.52
17.06
13.69
9.39
4.48
-0.58
-5.41
-9.93
-14.35
-19.06
-24.52
-31.08
-38.97
-48.14
-58.12
-67.8
-75.65
-79.84
-78.93
-72.33
-60.64
-45.45
-28.76
-12.42
2.45
15.42
26.48
35.65
42.73
47.42
49.52
49.29
47.38
44.7
42.06
39.9
38.19
36.68
35.06
33.23
31.36
29.74
28.51
27.59
26.58
24.94
22.21
18.14
12.85
6.75
0.45
-5.56
-10.99
-16.03
-21.14
-27.0
-34.2
-43.03
-53.31
-64.33
-74.82
-83.13
-87.62
-87.05
-81.02
-70.11
-55.77
-39.8
-23.83
-8.89
4.64
16.75
27.5
36.65
43.78
48.45
50.55
50.44
48.9
46.86
45.02
43.71
42.73
41.62
40.06
37.96
35.62
33.43
31.67
30.24
28.69
26.43
23.03
18.44
12.99
7.24
1.72
-3.21
-7.59
-11.68
-16.02
-21.13
-27.47
-35.3
-44.45
-54.28
-63.56
-70.68
-74.03
-72.48
-65.79
-54.7
-40.79
-25.82
-11.3
1.88
13.55
23.88
33.07
41.03
47.4
51.74
53.84
53.89
52.52
50.51
48.53
46.88
45.47
43.99
42.13
39.81
37.22
34.73
32.57
30.78
28.96
26.54
23.0
18.08
11.98
5.33
-1.16
-6.83
-11.48
-15.29
-18.78
-22.62
-27.4
-33.51
-41.02
-49.55
-58.28
-65.9
-70.88
-71.88
-68.12
-59.71
-47.59
-33.28
-18.33
-4.04
8.8
19.8
28.76
35.56
40.11
42.43
42.76
41.62
39.66
37.51
35.6
34.05
32.72
31.38
29.84
28.12
26.39
24.88
23.65
22.49
20.95
18.52
14.8
9.74
3.69
-2.8
-9.12
-14.84
-19.87
-24.48
-29.2
-34.66
-41.32
-49.29
-58.06
-66.56
-73.24
-76.49
-75.1
-68.68
-57.79
-43.81
-28.44
-13.27
0.63
12.77
23.03
31.38
37.76
42.0
44.03
44.05
42.58
40.28
37.82
35.53
33.48
31.48
29.37
27.14
24.99
23.2
21.91
21.04
20.19
18.83
16.46
12.83
7.97
2.22
-3.92
-9.98
-15.67
-20.93
-25.94
-31.09
-36.85
-43.64
-51.67
-60.75
-70.12
-78.39
-83.84
-84.84
-80.48
-70.89
-57.29
-41.51
-25.43
-10.4
2.93
14.49
24.38
32.59
38.94
43.21
45.37
45.78
45.07
43.97
43.02
42.4
41.93
41.28
40.12
38.4
36.34
34.31
32.57
31.07
29.45
27.15
23.66
18.83
12.9
6.46
0.15
-5.56
-10.61
-15.31
-20.26
-26.04
-33.07
-41.41
-50.75
-60.4
-69.22
-75.82
-78.81
-77.15
-70.5
-59.41
-45.16
-29.4
-13.67
0.98
13.97
25.14
34.44
41.71
46.76
49.48
49.98
48.68
46.18
43.15
40.13
37.43
35.11
33.07
31.15
29.29
27.57
26.09
24.96
24.04
22.98
21.29
18.47
14.33
9.04
3.08
-2.84
-8.2
-12.81
-16.92
-21.06
-25.87
-31.84
-39.16
-47.59
-56.41
-64.5
-70.46
-72.85
-70.69
-63.69
-52.52
-38.59
-23.64
-9.21
3.72
14.76
23.91
31.24
36.65
39.96
41.09
40.36
38.45
36.26
34.54
33.63
33.3
33.09
32.54
31.5
30.2
28.95
27.96
27.05
25.71
23.33
19.47
14.18
7.86
1.21
-5.09
-10.6
-15.24
-19.2
-22.89
-26.84
-31.56
-37.45
-44.6
-52.6
-60.36
-66.31
-68.83
-66.75
-59.84
-48.95
-35.67
-21.75
-8.63
2.96
12.88
21.25
28.18
33.59
37.27
39.1
39.24
38.18
36.59
35.08
33.93
33.05
32.09
30.7
28.78
26.53
24.38
22.68
21.45
20.29
18.55
15.57
11.02
5.02
-1.83
-8.76
-15.1
-20.59
-25.45
-30.29
-35.8
-42.53
-50.62
-59.7
-68.95
-77.18
-82.95
-84.94
-82.19
-74.49
-62.45
-47.46
-31.19
-15.26
-0.77
11.8
22.42
31.22
38.22
43.34
46.42
47.52
46.98
45.38
43.36
41.34
39.42
37.5
35.4
33.11
30.87
29.04
27.89
27.36
27.02
26.16
24.13
20.55
15.5
9.44
3.07
-3.0
-8.49
-13.46
-18.33
-23.72
-30.16
-37.99
-47.2
-57.27
-67.16
-75.37
-80.21
-80.25
-74.76
-64.04
-49.34
-32.5
-15.34
0.77
15.16
27.66
38.3
47.01
53.57
57.69
59.35
58.9
57.05
54.62
52.34
50.52
49.06
47.64
45.88
43.65
41.11
38.61
36.45
34.66
32.92
30.64
27.28
22.6
16.77
10.35
4.04
-1.63
-6.53
-10.93
-15.35
-20.38
-26.44
-33.73
-42.2
-51.51
-60.94
-69.41
-75.49
-77.77
-75.27
-67.77
-56.0
-41.41
-25.71
-10.39
3.66
16.09
26.9
36.08
43.4
48.49
51.06
51.19
49.38
46.49
43.42
40.78
38.71
36.93
35.06
32.85
30.44
28.22
26.59
25.66
25.14
24.41
22.79
19.89
15.77
10.81
5.59
0.61
-4.0
-8.4
-13.01
-18.3
-24.62
-32.1
-40.61
-49.6
-58.2
-65.18
-69.21
-69.12
-64.34
-55.12
-42.51
-28.14
-13.7
-0.48
10.82
20.06
27.37
32.82
36.43
38.15
38.15
36.95
35.26
33.78
32.9
32.58
32.41
31.91
30.8
29.14
27.21
25.28
23.39
21.28
18.5
14.65
9.6
3.52
-3.12
-9.8
-16.1
-21.85
-27.12
-32.2
-37.51
-43.47
-50.37
-58.21
-66.48
-74.14
-79.68
-81.47
-78.41
-70.23
-57.78
-42.65
-26.7
-11.41
2.38
14.43
24.78
33.41
40.06
44.41
46.34
46.12
44.38
41.98
39.66
37.8
36.43
35.28
34.04
32.54
30.82
29.11
27.64
26.48
25.41
23.98
21.65
18.05
13.15
7.29
1.06
-4.93
-10.29
-14.99
-19.35
-23.91
-29.26
-35.85
-43.83
-52.85
-62.07
-70.1
-75.3
-76.2
-72.0
-62.84
-49.85
-34.71
-19.18
-4.57
8.5
19.86
29.53
37.45
43.35
46.98
48.29
47.69
45.87
43.67
41.69
40.19
39.01
37.79
36.21
34.21
31.99
29.88
28.2
27.05
26.17
25.11
23.31
20.36
16.11
10.77
4.82
-1.18
-6.83
-12.0
-16.96
-22.13
-28.05
-35.05
-43.16
-51.98
-60.69
-68.09
-72.85
-73.79
-70.22
-62.11
-50.21
-35.78
-20.36
-5.33
8.33
20.1
29.79
37.36
42.76
45.98
47.07
46.32
44.26
41.57
38.86
36.45
34.36
32.37
30.23
27.84
25.38
23.22
21.66
20.77
20.24
19.52
17.99
15.27
11.3
6.42
1.17
-3.92
-8.58
-12.79
-16.84
-21.19
-26.33
-32.65
-40.19
-48.61
-57.04
-64.17
-68.49
-68.71
-64.2
-55.17
-42.67
-28.24
-13.43
0.56
13.04
23.69
32.38
38.96
43.26
45.26
45.16
43.48
40.88
37.96
35.1
32.45
29.92
27.39
24.8
22.24
19.85
17.71
15.77
13.76
11.27
7.87
3.34
-2.24
-8.39
-14.49
-19.92
-24.35
-27.82
-30.72
-33.63
-37.12
-41.63
-47.23
-53.62
-59.91
-64.82
-66.86
-64.84
-58.25
-47.55
-34.03
-19.39
-5.19
7.51
18.3
27.16
34.11
39.08
41.89
42.45
41.05
38.4
35.44
32.95
31.3
30.34
29.55
28.43
26.75
24.68
22.57
20.72
19.08
17.25
14.63
10.73
5.47
-0.8
-7.39
-13.57
-18.83
-23.08
-26.67
-30.21
-34.38
-39.77
-46.59
-54.59
-62.99
-70.5
-75.57
-76.75
-73.2
-64.9
-52.7
-38.07
-22.64
-7.8
5.54
16.91
26.21
33.42
38.61
41.81
43.24
43.18
42.1
40.52
38.87
37.43
36.22
35.13
33.93
32.52
30.9
29.19
27.49
25.74
23.68
20.87
16.99
11.96
6.07
-0.07
-5.78
-10.59
-14.4
-17.59
-20.79
-24.77
-30.1
-37.0
-45.16
-53.64
-61.06
-65.83
-66.63
-62.84
-54.68
-43.19
-29.79
-15.92
-2.63
9.39
19.83
28.48
35.22
39.86
42.4
43.01
42.17
40.5
38.64
37.01
35.68
34.48
33.1
31.42
29.59
27.91
26.65
25.83
25.1
23.85
21.5
17.8
12.89
7.34
1.82
-3.11
-7.28
-10.91
-14.54
-18.76
-24.09
-30.74
-38.48
-46.69
-54.27
-59.87
-62.13
-60.09
-53.47
-42.92
-29.8
-15.78
-2.37
9.42
19.14
26.75
32.35
36.0
37.78
37.9
36.75
34.86
32.7
30.57
28.51
26.4
24.15
21.79
19.52
17.53
15.94
14.67
13.46
11.93
9.76
6.82
3.18
-0.92
-5.19
-9.38
-13.43
-17.44
-21.73
-26.74
-32.91
-40.45
-49.1
-57.89
-65.32
-69.61
-69.38
-64.11
-54.37
-41.62
-27.64
-14.0
-1.59
9.22
18.43
26.03
31.85
35.66
37.33
37.05
35.37
33.01
30.59
28.48
26.74
25.18
23.56
21.85
20.1
18.44
16.93
15.34
13.32
10.46
6.6
1.91
-3.16
-8.09
-12.6
-16.72
-20.88
-25.64
-31.51
-38.71
-47.09
-56.06
-64.6
-71.34
-74.9
-74.16
-68.68
-58.86
-45.83
-31.19
-16.41
-2.58
9.73
20.41
29.49
37.0
42.81
46.76
48.75
48.87
47.4
44.81
41.56
38.02
34.46
31.06
28.02
25.53
23.72
22.52
21.6
20.38
18.35
15.21
11.03
6.18
1.15
-3.66
-8.11
-12.34
-16.71
-21.74
-27.98
-35.75
-44.92
-54.65
-63.41
-69.29
-70.55
-66.33
-56.9
-43.62
-28.46
-13.28
0.67
12.87
23.41
32.49
40.16
46.19
50.24
52.11
51.94
50.16
47.4
44.2
40.96
37.86
34.96
32.37
30.2
28.55
27.34
26.23
24.74
22.34
18.73
14.0
8.52
2.86
-2.54
-7.49
-12.18
-17.06
-22.65
-29.35
-37.2
-45.73
-53.9
-60.3
-63.42
-62.12
-55.98
-45.54
-32.13
-17.45
-3.14
9.65
20.27
28.57
34.58
38.4
40.2
40.23
38.92
36.8
34.45
32.27
30.45
28.97
27.62
26.21
24.63
22.83
20.77
18.38
15.47
11.87
7.45
2.31
-3.27
-8.95
-14.43
-19.65
-24.73
-29.98
-35.82
-42.57
-50.36
-58.81
-67.01
-73.56
-76.84
-75.58
-69.27
-58.42
-44.37
-28.84
-13.47
0.66
13.01
23.44
31.98
38.58
43.17
45.69
46.35
45.56
43.88
41.86
39.87
38.08
36.45
34.91
33.37
31.77
29.99
27.89
25.23
21.81
17.5
12.32
6.47
0.21
-6.13
-12.31
-18.23
-23.98
-29.89
-36.37
-43.79
-52.1
-60.66
-68.22
-73.22
-74.16
-70.23
-61.52
-49.06
-34.43
-19.29
-4.97
7.82
18.89
28.35
36.35
42.88
47.79
50.92
52.24
51.94
50.5
48.44
46.29
44.42
42.95
41.84
40.94
40.0
38.77
36.96
34.33
30.66
25.88
20.03
13.35
6.12
-1.34
-8.81
-16.23
-23.76
-31.69
-40.29
-49.47
-58.54
-66.2
-70.82
-70.91
-65.76
-55.67
-41.93
-26.35
-10.69
3.77
16.45
27.25
36.23
43.35
48.42
51.3
52.02
50.92
48.62
45.75
42.78
39.9
37.06
34.17
31.13
28.01
24.9
21.83
18.74
15.42
11.7
7.52
3.0
-1.63
-6.17
-10.61
-15.21
-20.48
-27.0
-35.03
-44.34
-53.97
-62.4
-67.85
-68.87
-64.75
-55.71
-42.83
-27.61
-11.66
3.82
17.99
30.39
40.75
48.85
54.55
57.78
58.73
57.72
55.25
51.82
47.91
43.85
39.88
36.17
32.79
29.79
27.14
24.71
22.29
19.55
16.18
11.98
6.98
1.45
-4.14
-9.32
-13.8
-17.65
-21.3
-25.4
-30.65
-37.37
-45.37
-53.79
-61.24
-66.12
-67.12
-63.52
-55.48
-43.91
-30.21
-15.81
-1.86
10.88
22.02
31.33
38.59
43.59
46.21
46.61
45.25
42.83
40.03
37.37
35.01
32.9
30.84
28.69
26.45
24.16
21.84
19.43
16.74
13.53
9.7
5.27
0.47
-4.37
-8.96
-13.13
-16.98
-20.78
-24.91
-29.78
-35.58
-42.17
-48.9
-54.72
-58.34
-58.58
-54.73
-46.86
-35.75
-22.77
-9.38
3.17
14.03
22.77
29.24
33.4
35.27
35.07
33.2
30.31
27.16
24.44
22.54
21.47
20.95
20.59
20.1
19.4
18.57
17.66
16.62
15.15
12.89
9.53
5.02
-0.35
-6.12
-11.79
-17.04
-21.83
-26.44
-31.31
-36.94
-43.62
-51.3
-59.46
-67.02
-72.57
-74.69
-72.35
-65.29
-54.12
-40.15
-24.95
-9.97
3.78
15.75
25.77
33.75
39.66
43.47
45.26
45.28
43.99
41.96
39.69
37.53
35.55
33.66
31.64
29.4
27.01
24.68
22.64
20.95
19.37
17.48
14.78
11.0
6.22
0.86
-4.5
-9.38
-13.63
-17.48
-21.43
-26.0
-31.62
-38.41
-46.03
-53.64
-59.95
-63.45
-62.89
-57.73
-48.35
-36.05
-22.53
-9.38
2.36
12.34
20.66
27.52
32.96
36.85
39.05
39.63
38.95
37.58
36.04
34.67
33.4
31.96
30.05
27.57
24.77
22.05
19.74
17.91
16.22
14.09
10.98
6.66
1.29
-4.67
-10.6
-16.05
-20.8
-24.94
-28.77
-32.71
-37.18
-42.45
-48.39
-54.41
-59.41
-62.01
-60.95
-55.6
-46.16
-33.67
-19.65
-5.61
7.36
18.73
28.29
36.0
41.68
45.14
46.23
45.13
42.38
38.79
35.08
31.73
28.82
26.2
23.62
21.01
18.48
16.27
14.52
13.17
11.91
10.33
8.1
5.09
1.49
-2.34
-6.03
-9.39
-12.48
-15.61
-19.17
-23.58
-29.07
-35.62
-42.9
-50.2
-56.5
-60.64
-61.59
-58.73
-52.12
-42.43
-30.81
-18.53
-6.67
4.0
13.1
20.36
25.67
28.99
30.46
30.45
29.45
28.02
26.51
25.11
23.72
22.27
20.71
19.11
17.63
16.37
15.23
13.91
12.02
9.18
5.29
0.48
-4.77
-9.98
-14.76
-19.01
-23.01
-27.18
-31.99
-37.73
-44.36
-51.46
-58.15
-63.24
-65.43
-63.66
-57.45
-47.18
-33.94
-19.34
-4.96
8.0
18.94
27.67
34.25
38.66
40.83
40.8
38.81
35.42
31.38
27.33
23.69
20.48
17.56
14.72
11.92
9.26
6.86
4.72
2.7
0.54
-1.97
-4.81
-7.78
-10.55
-12.9
-14.8
-16.49
-18.41
-21.16
-25.24
-30.96
-38.25
-46.49
-54.51
-60.74
-63.62
-62.01
-55.63
-45.15
-31.91
-17.56
-3.49
9.29
20.29
29.33
36.36
41.32
44.27
45.31
44.73
42.91
40.34
37.43
34.48
31.68
29.07
26.65
24.34
22.07
19.77
17.31
14.56
11.39
7.8
3.83
-0.33
-4.52
-8.71
-12.98
-17.61
-22.92
-29.27
-36.85
-45.57
-54.85
-63.63
-70.37
-73.51
-71.89
-65.21
-54.14
-40.16
-25.13
-10.63
2.29
13.25
22.25
29.45
34.87
38.41
39.98
39.68
37.9
35.2
32.25
29.52
27.27
25.49
23.95
22.42
20.7
18.69
16.43
13.91
11.17
8.11
4.7
0.91
-3.15
-7.28
-11.36
-15.43
-19.78
-24.9
-31.25
-39.02
-47.81
-56.49
-63.48
-67.06
-65.97
-59.87
-49.41
-36.05
-21.49
-7.21
5.83
17.22
26.8
34.42
39.87
42.91
43.52
41.99
38.98
35.28
31.63
28.51
26.08
24.18
22.59
21.09
19.53
17.79
15.78
13.32
10.28
6.65
2.5
-1.92
-6.34
-10.66
-14.93
-19.46
-24.67
-30.87
-38.14
-46.1
-53.9
-60.34
-64.09
-64.03
-59.61
-50.99
-39.05
-25.17
-10.81
2.77
14.73
24.6
32.25
37.64
40.82
41.9
41.19
39.13
36.31
33.3
30.54
28.25
26.43
24.96
23.71
22.53
21.28
19.81
17.83
15.07
11.36
6.74
1.47
-4.04
-9.42
-14.52
-19.45
-24.58
-30.43
-37.44
-45.89
-55.58
-65.76
-75.07
-81.83
-84.43
-81.85
-74.02
-61.81
-46.7
-30.31
-13.97
1.52
15.74
28.44
39.39
48.24
54.7
58.63
60.23
59.98
58.51
56.45
54.23
52.07
49.99
47.97
45.99
44.12
42.4
40.77
39.0
36.71
33.48
29.07
23.5
17.07
10.21
3.33
-3.41
-10.11
-17.07
-24.65
-33.17
-42.73
-53.11
-63.6
-72.99
-79.68
-82.15
-79.42
-71.47
-59.21
-44.27
-28.3
-12.62
2.14
15.78
28.29
39.5
48.99
56.23
60.87
62.96
63.04
61.92
60.5
59.35
58.62
58.1
57.37
56.14
54.37
52.3
50.22
48.34
46.55
44.47
41.61
37.61
32.42
26.28
19.66
13.03
6.7
0.77
-4.88
-10.51
-16.44
-22.99
-30.44
-38.93
-48.31
-58.01
-66.94
-73.68
-76.78
-75.21
-68.67
-57.7
-43.5
-27.58
-11.35
4.12
18.14
30.39
40.67
48.81
54.65
58.07
59.14
58.22
55.95
53.13
50.45
48.31
46.74
45.48
44.27
42.95
41.57
40.23
38.97
37.57
35.71
32.97
29.11
24.16
18.4
12.3
6.3
0.66
-4.55
-9.5
-14.45
-19.58
-25.0
-30.69
-36.63
-42.94
-49.7
-56.95
-64.3
-70.88
-75.35
-76.31
-72.75
-64.5
-52.29
-37.52
-21.77
-6.33
8.02
20.93
32.26
41.78
49.18
54.15
56.66
57.02
55.83
53.83
51.65
49.64
47.89
46.27
44.63
42.82
40.79
38.54
36.05
33.31
30.27
26.89
23.19
19.2
14.95
10.46
5.72
0.7
-4.61
-10.15
-15.82
-21.49
-27.15
-32.87
-38.86
-45.38
-52.69
-60.87
-69.74
-78.61
-86.33
-91.41
-92.43
-88.48
-79.54
-66.51
-50.89
-34.33
-18.16
-3.24
10.07
21.62
31.41
39.38
45.53
49.9
52.65
54.02
54.29
53.76
52.66
51.2
49.56
47.89
46.31
44.92
43.71
42.54
41.06
38.91
35.81
31.7
26.88
21.81
16.92
12.39
8.09
3.68
-1.13
-6.42
-11.99
-17.48
-22.57
-27.19
-31.52
-35.9
-40.77
-46.5
-53.3
-61.06
-69.22
-76.71
-82.1
-83.83
-80.81
-72.76
-60.4
-45.18
-28.84
-12.86
1.84
14.9
26.32
36.11
44.12
50.1
53.84
55.4
55.1
53.49
51.15
48.55
45.99
43.63
41.6
39.95
38.7
37.74
36.83
35.68
33.99
31.66
28.68
25.21
21.42
17.46
13.44
9.39
5.25
0.93
-3.7
-8.65
-13.87
-19.13
-24.15
-28.71
-32.82
-36.77
-41.15
-46.58
-53.49
-61.75
-70.54
-78.4
-83.6
-84.64
-80.71
-71.99
-59.56
-45.05
-30.12
-16.0
-3.35
7.73
17.37
25.75
32.83
38.41
42.24
44.22
44.47
43.41
41.59
39.52
37.6
36.0
34.73
33.73
32.88
32.09
31.24
30.16
28.7
26.73
24.15
20.96
17.21
12.92
8.12
2.91
-2.57
-8.05
-13.26
-18.03
-22.35
-26.39
-30.39
-34.57
-39.14
-44.21
-49.85
-55.86
-61.67
-66.3
-68.5
-67.09
-61.48
-51.96
-39.6
-25.95
-12.49
-0.3
10.11
18.61
25.2
29.84
32.49
33.18
32.21
30.08
27.41
24.78
22.54
20.84
19.64
18.86
18.47
18.46
18.8
19.3
19.62
19.34
18.17
16.02
13.05
9.54
5.74
1.77
-2.4
-6.82
-11.41
-15.99
-20.35
-24.33
-28.04
-31.76
-35.87
-40.74
-46.59
-53.45
-61.02
-68.61
-75.09
-79.1
-79.34
-75.06
-66.39
-54.36
-40.51
-26.41
-13.2
-1.41
8.96
18.05
25.91
32.4
37.31
40.51
42.1
42.43
41.97
41.15
40.25
39.36
38.39
37.17
35.6
33.65
31.46
29.23
27.14
25.28
23.57
21.77
19.58
16.72
13.03
8.52
3.43
-1.92
-7.19
-12.16
-16.81
-21.32
-26.03
-31.29
-37.44
-44.63
-52.76
-61.33
-69.39
-75.58
-78.5
-77.04
-70.86
-60.53
-47.29
-32.73
-18.21
-4.64
7.55
18.21
27.26
34.53
39.82
43.04
44.29
43.9
42.35
40.22
37.94
35.77
33.82
32.03
30.33
28.75
27.41
26.48
25.99
25.71
25.21
23.92
21.42
17.6
12.71
7.24
1.76
-3.38
-8.1
-12.66
-17.43
-22.86
-29.24
-36.7
-45.02
-53.61
-61.48
-67.36
-69.97
-68.35
-62.24
-52.12
-39.19
-24.92
-10.75
2.25
13.56
23.02
30.72
36.75
41.21
44.2
45.91
46.63
46.76
46.64
46.45
46.18
45.71
44.96
44.01
43.15
42.65
42.59
42.72
42.49
41.24
38.56
34.47
29.47
24.35
19.89
16.51
14.05
11.87
9.03
4.67
-1.74
-10.15
-19.92
-30.05
-39.28
-46.46
-50.78
-51.93
-50.18
-46.23
-40.99
-35.35
-30.02
-25.4
-21.74
-19.2
-17.87
-17.74
-18.74
-20.64
-23.19
-26.14
-29.36
-32.72
-36.06
-39.14
-41.65
-43.23
-43.61
-42.7
-40.69
-38.04
-35.39
-33.36
-32.32
-32.32
-33.14
-34.37
-35.7
-37.04
-38.5
-40.41
-43.09
-46.76
-51.37
-56.42
-60.9
-63.45
-62.68
-57.55
-47.82
-34.2
-17.98
-0.65
16.65
33.27
49.0
63.73
77.22
89.0
98.54
105.44
109.63
111.34
111.08
109.32
106.5
102.82
98.32
92.89
86.45
79.03
70.85
62.16
53.18
43.89
34.06
23.41
11.89
-0.28
-12.57
-24.46
-35.61
-46.06
-56.2
-66.58
-77.58
-89.21
-100.93
-111.71
-120.17
-124.87
-124.76
-119.49
-109.57
-96.12
-80.53
-63.95
-47.08
-30.22
-13.46
2.88
18.23
31.87
43.1
51.55
57.23
60.45
61.75
61.61
60.52
58.78
56.62
54.22
51.66
49.0
46.3
43.45
40.26
36.4
31.58
25.69
18.89
11.63
4.45
-2.22
-8.3
-14.07
-20.14
-27.13
-35.49
-45.29
-56.09
-66.87
-76.19
-82.34
-83.75
-79.45
-69.36
-54.42
-36.32
-17.05
1.7
18.86
33.95
46.93
57.82
66.51
72.76
76.39
77.52
76.52
74.02
70.58
66.63
62.34
57.74
52.83
47.78
42.82
38.27
34.28
30.85
27.74
24.49
20.69
15.97
10.17
3.44
-3.83
-11.16
-18.09
-24.35
-30.04
-35.53
-41.39
-48.17
-56.18
-65.25
-74.64
-83.08
-89.05
-91.15
-88.5
-80.98
-69.26
-54.61
-38.48
-22.15
-6.58
7.6
19.96
30.07
37.55
42.2
44.13
43.85
42.18
39.99
37.93
36.31
35.03
33.78
32.26
30.37
28.22
26.13
24.42
23.21
22.34
21.43
19.94
17.41
13.65
8.78
3.24
-2.45
-7.83
-12.8
-17.63
-22.86
-29.17
-37.02
-46.54
-57.35
-68.57
-78.86
-86.63
-90.36
-88.93
-81.97
-69.94
-54.08
-36.01
-17.37
0.51
16.84
31.16
43.23
52.83
59.78
63.93
65.39
64.54
62.1
58.93
55.85
53.41
51.72
50.56
49.44
47.92
45.75
43.0
39.96
36.93
34.03
31.09
27.7
23.44
18.09
11.76
4.94
-1.73
-7.73
-12.9
-17.5
-22.1
-27.39
-33.97
-42.14
-51.76
-62.26
-72.53
-81.07
-86.28
-86.8
-82.0
-72.09
-58.13
-41.75
-24.56
-7.88
7.55
21.44
33.67
44.15
52.61
58.75
62.5
63.96
63.59
62.0
59.81
57.48
55.23
53.07
50.95
48.83
46.79
44.94
43.36
41.95
40.48
38.55
35.69
31.59
26.14
19.57
12.35
5.08
-1.76
-7.92
-13.49
-18.85
-24.5
-30.94
-38.56
-47.43
-57.17
-66.92
-75.31
-80.69
-81.68
-77.52
-68.4
-55.38
-40.0
-23.85
-8.11
6.49
19.61
31.05
40.61
48.06
53.25
56.19
57.1
56.44
54.77
52.72
50.76
49.14
47.85
46.67
45.36
43.78
41.92
39.9
37.78
35.5
32.93
29.83
26.1
21.68
16.67
11.2
5.47
-0.33
-6.04
-11.55
-16.9
-22.31
-28.09
-34.63
-42.2
-50.91
-60.51
-70.33
-79.24
-85.81
-88.58
-86.47
-79.1
-66.98
-51.36
-33.89
-16.28
0.16
14.59
26.64
36.2
43.28
47.93
50.27
50.53
49.15
46.76
44.01
41.49
39.46
37.9
36.55
35.15
33.6
32.01
30.6
29.5
28.59
27.51
25.73
22.88
18.83
13.79
8.24
2.68
-2.55
-7.33
-11.85
-16.44
-21.5
-27.41
-34.41
-42.6
-51.73
-61.13
-69.59
-75.59
-77.62
-74.64
-66.55
-54.22
-39.26
-23.39
-8.04
5.96
18.27
28.7
36.98
42.74
45.67
45.87
43.95
40.84
37.55
34.74
32.61
30.95
29.38
27.58
25.44
23.07
20.72
18.62
16.88
15.42
13.93
12.0
9.25
5.48
0.77
-4.53
-9.97
-15.24
-20.2
-24.97
-29.79
-34.95
-40.72
-47.33
-54.91
-63.3
-71.89
-79.49
-84.51
-85.41
-81.24
-72.03
-58.83
-43.36
-27.42
-12.37
1.13
12.97
23.28
32.09
39.24
44.42
47.43
48.4
47.82
46.38
44.78
43.41
42.31
41.25
39.93
38.23
36.24
34.27
32.57
31.17
29.85
28.11
25.44
21.47
16.14
9.71
2.73
-4.18
-10.51
-16.03
-20.91
-25.58
-30.63
-36.59
-43.71
-51.94
-60.72
-69.06
-75.67
-79.15
-78.37
-72.82
-62.78
-49.3
-33.85
-17.91
-2.67
11.17
23.25
33.37
41.27
46.71
49.55
49.94
48.39
45.66
42.56
39.66
37.18
34.98
32.75
30.29
27.59
24.98
22.82
21.34
20.45
19.74
18.57
16.43
13.03
8.5
3.26
-2.15
-7.27
-11.91
-16.11
-20.14
-24.35
-29.14
-34.87
-41.79
-49.84
-58.54
-66.79
-73.06
-75.72
-73.64
-66.55
-55.2
-41.15
-26.12
-11.51
1.86
13.75
24.11
32.83
39.61
44.11
46.25
46.33
45.05
43.19
41.39
39.89
38.6
37.31
35.83
34.15
32.4
30.68
29.03
27.25
25.03
22.03
18.02
13.02
7.29
1.27
-4.53
-9.75
-14.26
-18.18
-21.83
-25.69
-30.27
-35.9
-42.72
-50.42
-58.21
-64.85
-68.89
-69.06
-64.68
-55.87
-43.57
-29.22
-14.39
-0.33
12.22
22.89
31.54
38.05
42.27
44.15
43.89
42.04
39.32
36.48
33.94
31.78
29.76
27.53
24.93
22.01
19.07
16.42
14.16
12.11
9.85
6.87
2.78
-2.5
-8.65
-15.12
-21.29
-26.72
-31.31
-35.37
-39.49
-44.33
-50.42
-57.85
-66.12
-74.07
-80.12
-82.61
-80.33
-72.89
-60.91
-45.75
-29.13
-12.59
2.78
16.39
28.01
37.52
44.71
49.46
51.74
51.8
50.21
47.68
44.87
42.23
39.9
37.8
35.76
33.6
31.32
29.03
26.82
24.72
22.53
19.86
16.3
11.55
5.57
-1.29
-8.45
-15.34
-21.59
-27.18
-32.45
-37.91
-44.03
-51.07
-58.92
-67.04
-74.52
-80.12
-82.57
-80.85
-74.5
-63.84
-49.9
-34.07
-17.75
-2.02
12.41
25.16
35.92
44.4
50.32
53.6
54.47
53.48
51.42
49.05
46.91
45.23
43.89
42.64
41.22
39.56
37.79
36.13
34.77
33.63
32.37
30.4
27.14
22.29
15.97
8.74
1.36
-5.54
-11.67
-17.21
-22.7
-28.76
-35.96
-44.47
-54.0
-63.71
-72.32
-78.28
-80.16
-77.11
-69.1
-56.97
-42.2
-26.39
-10.84
3.63
16.65
28.02
37.53
44.82
49.61
51.85
51.93
50.6
48.73
47.03
45.85
45.12
44.52
43.72
42.53
41.01
39.35
37.68
35.96
33.94
31.28
27.71
23.15
17.82
12.08
6.39
1.06
-3.75
-8.15
-12.44
-17.07
-22.5
-29.16
-37.34
-46.96
-57.48
-67.78
-76.22
-81.01
-80.69
-74.69
-63.52
-48.65
-32.04
-15.47
-0.07
13.64
25.62
35.84
44.02
49.76
52.75
53.11
51.49
48.84
46.13
43.92
42.28
40.84
39.16
36.99
34.4
31.75
29.41
27.56
26.03
24.38
22.1
18.79
14.4
9.24
3.8
-1.42
-6.15
-10.38
-14.36
-18.49
-23.13
-28.63
-35.23
-43.01
-51.7
-60.54
-68.22
-73.16
-73.94
-69.77
-60.83
-48.23
-33.63
-18.71
-4.66
7.9
18.83
28.15
35.77
41.41
44.8
45.91
45.13
43.2
40.99
39.16
37.95
37.23
36.55
35.52
33.93
31.87
29.53
27.2
25.04
23.03
21.01
18.65
15.61
11.69
6.89
1.47
-4.12
-9.46
-14.35
-18.87
-23.33
-28.12
-33.54
-39.77
-46.87
-54.76
-63.08
-71.08
-77.52
-80.9
-79.87
-73.77
-62.93
-48.56
-32.41
-16.18
-1.08
12.31
23.82
33.41
41.0
46.38
49.34
49.93
48.53
45.8
42.55
39.49
37.05
35.37
34.28
33.53
32.9
32.26
31.53
30.66
29.59
28.25
26.54
24.36
21.6
18.16
14.04
9.34
4.29
-0.87
-5.98
-11.04
-16.29
-22.04
-28.59
-36.13
-44.65
-53.9
-63.32
-71.96
-78.56
-81.69
-80.23
-73.69
-62.53
-48.07
-32.16
-16.54
-2.46
9.57
19.57
27.83
34.54
39.61
42.8
43.96
43.24
41.22
38.71
36.47
34.94
34.11
33.62
33.0
31.95
30.46
28.73
27.04
25.52
24.05
22.28
19.79
16.27
11.69
6.34
0.64
-4.95
-10.16
-14.95
-19.49
-24.04
-28.85
-34.11
-39.97
-46.53
-53.73
-61.21
-68.11
-73.15
-74.89
-72.21
-64.71
-52.95
-38.24
-22.3
-6.66
7.6
19.92
30.13
38.15
43.88
47.19
48.08
46.84
44.12
40.71
37.44
34.85
33.05
31.82
30.73
29.44
27.84
26.1
24.47
23.11
21.93
20.55
18.49
15.37
11.11
6.02
0.65
-4.39
-8.74
-12.35
-15.49
-18.58
-22.09
-26.41
-31.82
-38.45
-46.08
-54.07
-61.2
-65.94
-66.79
-62.86
-54.23
-41.93
-27.61
-12.95
0.77
12.91
23.3
31.91
38.54
42.85
44.5
43.54
40.53
36.44
32.33
28.93
26.4
24.4
22.37
19.92
17.04
14.09
11.57
9.77
8.61
7.61
6.17
3.79
0.28
-4.18
-9.13
-14.06
-18.59
-22.57
-26.17
-29.77
-33.91
-39.11
-45.72
-53.7
-62.54
-71.12
-77.9
-81.22
-79.85
-73.33
-62.23
-47.87
-31.96
-16.06
-1.26
11.82
22.95
32.0
38.87
43.48
45.87
46.34
45.41
43.69
41.65
39.54
37.41
35.21
32.95
30.76
28.86
27.41
26.38
25.5
24.32
22.37
19.35
15.26
10.35
5.08
-0.14
-5.03
-9.56
-13.88
-18.34
-23.31
-29.17
-36.18
-44.43
-53.62
-62.87
-70.78
-75.69
-76.2
-71.65
-62.36
-49.6
-35.03
-20.21
-6.12
6.81
18.47
28.81
37.52
44.16
48.35
50.09
49.84
48.36
46.43
44.57
42.92
41.24
39.22
36.68
33.74
30.75
28.08
25.88
23.95
21.8
18.93
15.03
10.18
4.81
-0.56
-5.49
-9.88
-13.97
-18.24
-23.24
-29.45
-37.08
-46.07
-55.85
-65.32
-72.94
-77.03
-76.27
-70.2
-59.41
-45.36
-29.9
-14.63
-0.59
11.78
22.44
31.37
38.44
43.42
46.21
46.99
46.22
44.57
42.58
40.63
38.83
37.12
35.42
33.73
32.13
30.84
29.96
29.43
28.89
27.77
25.5
21.84
16.92
11.28
5.55
0.19
-4.75
-9.6
-14.96
-21.38
-29.21
-38.44
-48.58
-58.67
-67.3
-72.87
-74.02
-70.06
-61.19
-48.54
-33.74
-18.48
-4.06
8.72
19.51
28.15
34.52
38.54
40.3
40.15
38.71
36.75
34.91
33.5
32.49
31.6
30.53
29.18
27.67
26.24
25.06
24.05
22.81
20.89
17.93
13.85
8.9
3.56
-1.72
-6.73
-11.55
-16.58
-22.36
-29.32
-37.67
-47.2
-57.16
-66.37
-73.35
-76.68
-75.37
-69.11
-58.5
-44.75
-29.42
-14.01
0.46
13.4
24.63
34.12
41.74
47.31
50.66
51.82
51.1
49.1
46.47
43.78
41.33
39.16
37.12
35.06
32.97
30.96
29.16
27.53
25.79
23.4
19.76
14.5
7.73
-0.01
-7.86
-15.09
-21.33
-26.75
-31.94
-37.63
-44.38
-52.36
-61.31
-70.45
-78.61
-84.33
-86.21
-83.23
-75.11
-62.48
-46.71
-29.48
-12.36
3.56
17.76
30.14
40.68
49.31
55.79
59.9
61.62
61.28
59.51
57.11
54.73
52.7
51.0
49.41
47.69
45.77
43.8
42.01
40.42
38.81
36.72
33.62
29.18
23.42
16.67
9.52
2.5
-4.0
-9.96
-15.66
-21.6
-28.41
-36.51
-46.04
-56.56
-67.0
-75.79
-81.2
-81.86
-77.18
-67.58
-54.31
-39.03
-23.25
-8.04
6.11
19.06
30.73
40.86
49.06
54.91
58.28
59.36
58.76
57.18
55.27
53.35
51.47
49.38
46.86
43.86
40.55
37.27
34.25
31.57
29.03
26.29
23.0
18.97
14.23
8.98
3.56
-1.72
-6.63
-11.2
-15.63
-20.25
-25.49
-31.65
-38.9
-47.11
-55.86
-64.34
-71.38
-75.63
-75.89
-71.46
-62.45
-49.8
-35.02
-19.7
-5.11
7.97
19.24
28.61
35.94
41.04
43.74
44.16
42.74
40.24
37.49
35.09
33.23
31.74
30.26
28.54
26.55
24.58
23.03
22.1
21.65
21.16
19.96
17.47
13.44
8.16
2.2
-3.68
-8.93
-13.37
-17.23
-21.06
-25.45
-30.93
-37.76
-45.81
-54.53
-62.86
-69.4
-72.63
-71.38
-65.2
-54.54
-40.63
-25.12
-9.61
4.73
17.26
27.71
36.02
42.13
46.0
47.64
47.26
45.34
42.6
39.75
37.35
35.63
34.44
33.4
32.11
30.37
28.24
25.97
23.79
21.74
19.58
16.83
13.07
8.05
1.98
-4.63
-11.13
-16.98
-21.98
-26.31
-30.46
-34.96
-40.31
-46.84
-54.58
-63.21
-71.93
-79.46
-84.29
-84.99
-80.76
-71.62
-58.51
-42.95
-26.55
-10.64
3.96
16.87
27.92
36.99
43.9
48.53
50.93
51.43
50.56
48.9
46.95
44.95
42.9
40.66
38.12
35.32
32.5
29.95
27.92
26.35
24.88
22.96
20.05
15.92
10.74
5.0
-0.71
-5.99
-10.76
-15.34
-20.24
-25.96
-32.82
-40.85
-49.76
-58.83
-66.96
-72.73
-74.72
-71.98
-64.37
-52.71
-38.57
-23.67
-9.43
3.39
14.59
24.24
32.29
38.45
42.35
43.77
42.88
40.29
36.79
33.15
29.84
27.01
24.55
22.34
20.37
18.8
17.75
17.2
16.82
16.02
14.25
11.26
7.21
2.6
-2.0
-6.21
-10.06
-13.89
-18.24
-23.55
-30.14
-38.02
-46.8
-55.63
-63.22
-68.03
-68.69
-64.5
-55.65
-43.28
-29.07
-14.67
-1.37
10.2
19.86
27.68
33.7
37.89
40.2
40.67
39.54
37.26
34.35
31.29
28.45
25.99
23.94
22.22
20.7
19.25
17.68
15.84
13.6
10.89
7.71
4.1
0.08
-4.25
-8.84
-13.6
-18.55
-23.81
-29.64
-36.3
-43.77
-51.46
-58.19
-62.42
-62.74
-58.38
-49.55
-37.36
-23.41
-9.31
3.77
15.14
24.56
31.98
37.35
40.57
41.62
40.57
37.81
33.9
29.59
25.52
22.18
19.77
18.17
17.17
16.41
15.61
14.54
13.06
11.03
8.41
5.22
1.51
-2.61
-7.01
-11.65
-16.53
-21.79
-27.73
-34.63
-42.6
-51.29
-59.67
-66.22
-69.23
-67.45
-60.53
-49.19
-35.0
-19.8
-5.19
7.84
18.87
27.8
34.69
39.49
42.18
42.81
41.69
39.3
36.25
33.08
30.21
27.79
25.78
23.99
22.16
20.08
17.65
14.82
11.64
8.17
4.44
0.42
-3.94
-8.65
-13.69
-19.08
-24.96
-31.61
-39.26
-47.81
-56.52
-64.04
-68.6
-68.69
-63.56
-53.57
-40.13
-25.17
-10.55
2.47
13.32
21.97
28.54
33.14
35.75
36.37
35.2
32.7
29.51
26.24
23.35
21.03
19.2
17.72
16.38
15.06
13.63
11.94
9.8
7.08
3.72
-0.21
-4.48
-8.84
-13.17
-17.6
-22.46
-28.27
-35.49
-44.25
-54.12
-63.99
-72.26
-77.11
-77.09
-71.57
-61.01
-46.8
-30.83
-14.95
-0.43
12.1
22.58
31.14
37.85
42.63
45.4
46.25
45.56
43.92
41.92
40.06
38.52
37.27
36.18
35.19
34.28
33.42
32.44
31.04
28.84
25.57
21.14
15.67
9.43
2.62
-4.58
-12.15
-20.16
-28.67
-37.77
-47.33
-56.83
-65.29
-71.31
-73.47
-70.74
-62.95
-50.96
-36.28
-20.63
-5.4
8.52
20.76
31.14
39.44
45.45
49.01
50.2
49.39
47.17
44.15
40.88
37.7
34.81
32.34
30.33
28.81
27.75
27.0
26.32
25.36
23.72
21.05
17.19
12.27
6.72
1.07
-4.22
-8.99
-13.54
-18.45
-24.45
-31.96
-40.92
-50.6
-59.64
-66.39
-69.25
-67.16
-59.92
-48.22
-33.52
-17.53
-1.82
12.58
25.17
35.79
44.39
50.81
54.84
56.51
56.08
54.19
51.6
48.93
46.48
44.24
42.04
39.77
37.51
35.42
33.66
32.21
30.77
28.91
26.18
22.34
17.42
11.71
5.66
-0.25
-5.71
-10.7
-15.47
-20.47
-26.27
-33.31
-41.64
-50.78
-59.62
-66.62
-70.1
-68.83
-62.37
-51.28
-36.87
-20.83
-4.74
10.27
23.5
34.57
43.17
49.07
52.08
52.33
50.3
46.82
42.77
38.87
35.52
32.72
30.31
28.06
25.84
23.63
21.41
19.11
16.58
13.57
9.92
5.58
0.7
-4.43
-9.55
-14.44
-19.1
-23.72
-28.66
-34.35
-41.16
-49.18
-58.0
-66.67
-73.7
-77.51
-76.8
-71.06
-60.71
-46.98
-31.46
-15.63
-0.51
13.31
25.52
35.85
43.84
49.14
51.59
51.51
49.62
46.81
43.83
41.07
38.56
36.12
33.59
30.94
28.31
25.86
23.63
21.58
19.46
16.97
13.87
10.0
5.38
0.19
-5.22
-10.51
-15.4
-19.89
-24.2
-28.92
-34.7
-42.07
-51.04
-60.89
-70.11
-76.77
-79.09
-76.04
-67.75
-55.39
-40.75
-25.5
-10.82
2.81
15.32
26.65
36.52
44.36
49.61
52.08
52.01
50.1
47.24
44.15
41.29
38.72
36.33
34.03
31.85
29.92
28.41
27.32
26.39
25.14
23.06
19.79
15.37
10.15
4.69
-0.5
-5.14
-9.31
-13.33
-17.62
-22.58
-28.57
-35.77
-44.13
-53.18
-61.85
-68.58
-71.68
-69.89
-62.93
-51.61
-37.63
-22.88
-8.89
3.58
14.4
23.82
31.93
38.59
43.4
46.08
46.59
45.39
43.17
40.73
38.56
36.83
35.33
33.7
31.67
29.27
26.77
24.59
22.96
21.77
20.59
18.83
16.06
12.28
7.8
3.19
-1.12
-4.94
-8.46
-12.13
-16.4
-21.58
-27.88
-35.25
-43.35
-51.52
-58.7
-63.6
-64.99
-62.13
-54.99
-44.29
-31.3
-17.42
-3.87
8.45
18.96
27.34
33.36
36.99
38.4
38.02
36.5
34.51
32.58
30.93
29.48
28.0
26.2
24.01
21.59
19.21
17.12
15.41
13.85
12.02
9.43
5.75
1.02
-4.43
-9.99
-15.06
-19.26
-22.6
-25.42
-28.34
-32.0
-36.87
-43.05
-50.12
-57.1
-62.61
-65.21
-63.79
-57.97
-48.29
-35.96
-22.56
-9.46
2.45
12.83
21.59
28.69
33.99
37.25
38.33
37.43
35.03
31.78
28.37
25.27
22.65
20.46
18.59
16.99
15.69
14.74
14.15
13.71
13.04
11.69
9.31
5.79
1.37
-3.46
-8.16
-12.37
-16.09
-19.69
-23.79
-29.01
-35.73
-43.94
-53.17
-62.59
-70.99
-77.04
-79.52
-77.6
-71.14
-60.72
-47.51
-32.95
-18.3
-4.47
8.02
18.94
28.1
35.28
40.3
43.12
43.98
43.31
41.71
39.73
37.73
35.85
34.11
32.44
30.86
29.46
28.35
27.54
26.83
25.8
23.96
20.88
16.43
10.78
4.46
-1.9
-7.75
-12.87
-17.53
-22.28
-27.9
-34.9
-43.36
-52.69
-61.71
-68.84
-72.57
-71.75
-66.03
-55.91
-42.6
-27.68
-12.62
1.51
14.15
25.15
34.46
41.94
47.37
50.55
51.54
50.73
48.74
46.27
43.77
41.46
39.33
37.27
35.26
33.4
31.82
30.57
29.44
27.99
25.61
21.81
16.44
9.8
2.54
-4.52
-10.74
-15.84
-20.04
-23.89
-28.06
-33.14
-39.47
-47.0
-55.19
-63.07
-69.3
-72.46
-71.42
-65.7
-55.73
-42.65
-28.0
-13.26
0.47
12.58
22.84
31.17
37.48
41.67
43.7
43.77
42.34
40.04
37.47
35.08
33.04
31.25
29.52
27.74
25.93
24.22
22.71
21.36
19.86
17.81
14.84
10.88
6.13
1.03
-3.97
-8.61
-12.96
-17.36
-22.32
-28.33
-35.63
-44.09
-53.06
-61.36
-67.5
-69.99
-67.84
-60.87
-49.78
-35.95
-20.98
-6.25
7.29
19.1
28.89
36.38
41.32
43.63
43.55
41.69
38.92
36.0
33.39
31.09
28.87
26.47
23.86
21.23
18.86
16.89
15.16
13.29
10.81
7.4
3.06
-1.97
-7.27
-12.46
-17.3
-21.81
-26.21
-30.89
-36.31
-42.85
-50.61
-59.22
-67.77
-74.84
-78.82
-78.32
-72.75
-62.46
-48.7
-33.14
-17.41
-2.67
10.56
22.11
32.0
40.06
46.0
49.58
50.79
50.03
47.96
45.33
42.69
40.23
37.88
35.46
32.89
30.31
27.98
26.12
24.76
23.59
22.12
19.83
16.42
11.92
6.67
1.19
-4.07
-8.95
-13.64
-18.69
-24.71
-32.16
-41.11
-50.98
-60.61
-68.43
-72.86
-72.76
-67.75
-58.27
-45.47
-30.83
-15.72
-1.18
12.16
23.96
33.97
41.9
47.46
50.53
51.23
50.09
47.86
45.37
43.24
41.77
40.92
40.39
39.84
39.02
37.88
36.46
34.8
32.84
30.38
27.18
23.06
18.1
12.58
6.95
1.58
-3.32
-7.86
-12.36
-17.23
-22.84
-29.43
-37.09
-45.62
-54.48
-62.71
-68.99
-71.91
-70.43
-64.24
-53.87
-40.59
-26.0
-11.55
1.77
13.48
23.46
31.67
38.07
42.53
44.98
45.54
44.7
43.17
41.71
40.85
40.72
40.99
41.07
40.44
38.89
36.57
33.92
31.27
28.7
25.91
22.47
18.07
12.72
6.8
0.9
-4.48
-9.05
-12.88
-16.28
-19.72
-23.66
-28.46
-34.32
-41.19
-48.68
-56.04
-62.17
-65.82
-65.9
-61.77
-53.46
-41.71
-27.75
-12.97
1.46
14.73
26.39
36.18
43.81
48.95
51.36
51.06
48.56
44.75
40.71
37.3
34.98
33.68
32.93
32.21
31.19
29.79
28.23
26.77
25.53
24.35
22.84
20.47
16.79
11.71
5.47
-1.39
-8.29
-14.79
-20.77
-26.42
-32.12
-38.27
-45.19
-53.05
-61.79
-70.97
-79.73
-86.78
-90.57
-89.83
-83.91
-73.16
-58.79
-42.51
-25.99
-10.43
3.6
15.92
26.56
35.43
42.35
47.12
49.74
50.49
49.92
48.75
47.56
46.75
46.33
46.09
45.71
44.91
43.61
41.92
40.03
38.06
35.94
33.39
30.03
25.51
19.75
12.98
5.69
-1.55
-8.28
-14.31
-19.8
-25.1
-30.61
-36.7
-43.57
-51.22
-59.43
-67.63
-74.86
-79.83
-81.21
-77.98
-69.86
-57.5
-42.31
-26.08
-10.4
3.75
16.03
26.61
35.7
43.34
49.25
53.1
54.72
54.31
52.41
49.84
47.24
45.05
43.31
41.81
40.2
38.27
35.97
33.43
30.86
28.45
26.22
24.02
21.6
18.7
15.15
11.0
6.43
1.74
-2.8
-7.02
-10.92
-14.68
-18.62
-23.17
-28.75
-35.63
-43.84
-52.93
-61.93
-69.41
-73.84
-73.96
-69.28
-60.16
-47.85
-33.95
-20.0
-7.07
4.33
14.1
22.3
28.93
33.88
37.04
38.45
38.36
37.22
35.58
33.91
32.51
31.41
30.49
29.59
28.6
27.52
26.43
25.31
24.05
22.41
20.1
16.88
12.75
7.9
2.7
-2.46
-7.26
-11.58
-15.55
-19.46
-23.68
-28.54
-34.25
-40.86
-48.16
-55.7
-62.65
-67.96
-70.42
-69.07
-63.43
-53.81
-41.21
-27.03
-12.68
0.75
12.6
22.52
30.28
35.68
38.59
39.14
37.74
35.12
32.15
29.56
27.81
26.98
26.81
26.83
26.57
25.74
24.28
22.39
20.35
18.33
16.3
14.0
11.07
7.29
2.67
-2.48
-7.69
-12.53
-16.8
-20.58
-24.26
-28.28
-33.09
-39.05
-46.22
-54.39
-62.89
-70.64
-76.24
-78.33
-75.91
-68.73
-57.42
-43.26
-27.87
-12.76
1.06
13.04
23.03
30.98
36.83
40.46
41.88
41.37
39.52
37.1
34.81
33.01
31.64
30.35
28.71
26.61
24.21
21.95
20.23
19.15
18.44
17.52
15.76
12.76
8.56
3.51
-1.82
-6.88
-11.41
-15.48
-19.45
-23.84
-29.11
-35.54
-43.14
-51.49
-59.76
-66.73
-70.95
-71.15
-66.62
-57.49
-44.79
-30.08
-14.96
-0.64
12.23
23.52
33.25
41.32
47.43
51.25
52.63
51.88
49.64
46.79
44.05
41.8
40.03
38.47
36.89
35.2
33.54
32.07
30.81
29.55
27.83
25.18
21.24
15.94
9.5
2.44
-4.66
-11.29
-17.21
-22.5
-27.49
-32.62
-38.26
-44.62
-51.66
-59.07
-66.23
-72.19
-75.75
-75.71
-71.31
-62.48
-49.98
-35.23
-19.83
-5.13
8.05
19.37
28.73
36.03
41.08
43.66
43.86
42.15
39.31
36.23
33.55
31.5
29.88
28.29
26.46
24.41
22.42
20.85
19.94
19.51
19.11
18.1
16.02
12.7
8.36
3.49
-1.42
-6.11
-10.62
-15.3
-20.64
-27.1
-34.88
-43.78
-53.09
-61.65
-67.97
-70.63
-68.67
-61.95
-51.19
-37.77
-23.28
-9.01
4.18
15.9
25.91
33.95
39.68
42.86
43.54
42.21
39.69
36.82
34.19
31.98
30.03
28.03
25.79
23.35
20.95
18.87
17.24
15.89
14.43
12.38
9.38
5.4
0.64
-4.48
-9.57
-14.41
-19.05
-23.78
-28.99
-35.11
-42.43
-50.93
-60.2
-69.24
-76.62
-80.7
-80.19
-74.55
-64.22
-50.48
-35.05
-19.49
-4.89
8.27
19.82
29.71
37.73
43.62
47.15
48.44
47.94
46.35
44.36
42.38
40.48
38.44
36.03
33.21
30.21
27.47
25.32
23.78
22.44
20.65
17.76
13.48
8.03
2.06
-3.67
-8.58
-12.64
-16.27
-20.22
-25.28
-32.02
-40.53
-50.35
-60.45
-69.29
-75.16
-76.65
-73.07
-64.67
-52.55
-38.22
-23.13
-8.27
5.83
18.87
30.52
40.31
47.73
52.48
54.67
54.78
53.57
51.79
49.95
48.29
46.78
45.29
43.72
42.05
40.31
38.56
36.79
34.85
32.47
29.43
25.58
20.99
15.9
10.67
5.65
1.06
-3.11
-7.09
-11.36
-16.52
-23.12
-31.38
-40.97
-50.89
-59.61
-65.41
-66.96
-63.68
-55.95
-44.92
-32.06
-18.76
-6.02
5.63
15.96
24.83
32.05
37.43
40.85
42.37
42.37
41.44
40.18
39.08
38.32
37.83
37.32
36.55
35.47
34.2
33.0
31.99
31.09
29.96
28.08
25.1
20.89
15.69
9.96
4.22
-1.22
-6.33
-11.37
-16.81
-23.15
-30.68
-39.4
-48.79
-57.91
-65.41
-69.89
-70.16
-65.66
-56.65
-44.1
-29.48
-14.35
0.04
12.92
23.93
32.86
39.51
43.64
45.13
44.21
41.55
38.14
34.97
32.68
31.35
30.61
29.9
28.85
27.46
26.0
24.83
24.05
23.45
22.51
20.68
17.59
13.22
7.84
1.89
-4.17
-10.07
-15.77
-21.48
-27.58
-34.52
-42.65
-51.97
-61.92
-71.33
-78.57
-81.99
-80.44
-73.63
-62.26
-47.74
-31.77
-15.77
-0.76
12.79
24.64
34.67
42.63
48.24
51.44
52.4
51.66
49.93
47.88
45.94
44.23
42.58
40.72
38.51
35.97
33.28
30.62
28.05
25.38
22.27
18.35
13.39
7.45
0.88
-5.78
-11.98
-17.35
-21.93
-26.01
-30.15
-34.93
-40.77
-47.86
-55.94
-64.22
-71.42
-75.94
-76.33
-71.79
-62.5
-49.55
-34.54
-19.01
-3.98
10.17
23.45
35.79
46.91
56.27
63.37
68.14
70.98
72.73
74.33
76.44
79.35
82.89
86.64
90.11
92.93
94.85
95.76
95.53
93.98
90.79
85.53
77.83
67.6
55.11
41.04
26.29
11.7
-2.2
-15.24
-27.57
-39.45
-51.08
-62.46
-73.43
-83.63
-92.41
-98.93
-102.13
-101.1
-95.39
-85.34
-72.13
-57.45
-43.04
-30.21
-19.59
-11.26
-5.0
-0.62
1.98
2.84
2.19
0.57
-1.28
-2.61
-3.04
-2.64
-1.87
-1.35
-1.43
-2.13
-3.06
-3.69
-3.67
-2.99
-2.02
-1.33
-1.42
-2.57
-4.68
-7.39
-10.28
-13.07
-15.69
-18.41
-21.61
-25.7
-30.89
-37.15
-44.13
-51.27
-57.74
-62.52
-64.54
-62.93
-57.29
-47.92
-35.77
-22.22
-8.62
3.96
14.99
24.25
31.68
37.17
40.56
41.76
41.0
38.78
35.88
32.98
30.53
28.62
27.13
25.84
24.65
23.61
22.82
22.35
22.12
21.83
21.09
19.47
16.71
12.83
8.17
3.22
-1.5
-5.74
-9.57
-13.4
-17.69
-22.84
-28.97
-35.89
-43.09
-49.77
-54.9
-57.42
-56.41
-51.55
-43.15
-32.24
-20.14
-8.17
2.79
12.35
20.38
26.87
31.66
34.56
35.42
34.47
32.27
29.66
27.44
26.09
25.53
25.28
24.68
23.3
21.14
18.66
16.48
14.95
14.0
13.07
11.45
8.63
4.6
-0.18
-5.07
-9.52
-13.32
-16.69
-20.07
-23.91
-28.59
-34.23
-40.76
-47.83
-54.78
-60.61
-64.06
-63.88
-59.21
-49.87
-36.52
-20.51
-3.45
13.12
28.18
41.19
52.07
60.93
67.98
73.4
77.36
80.08
81.75
82.58
82.63
81.87
80.14
77.31
73.31
68.31
62.64
56.8
51.14
45.74
40.32
34.36
27.38
19.3
10.57
2.11
-5.16
-10.64
-14.39
-17.16
-20.1
-24.38
-30.82
-39.69
-50.61
-62.61
-74.33
-84.2
-90.84
-93.29
-91.33
-85.51
-76.94
-66.99
-56.94
-47.68
-39.65
-32.97
-27.62
-23.52
-20.54
-18.53
-17.23
-16.26
-15.31
-14.17
-12.85
-11.51
-10.36
-9.53
-8.98
-8.45
-7.69
-6.5
-4.92
-3.31
-2.18
-2.08
-3.31
-5.84
-9.23
-12.89
-16.26
-19.09
-21.46
-23.8
-26.59
-30.26
-34.96
-40.58
-46.64
-52.35
-56.62
-58.26
-56.31
-50.36
-40.73
-28.48
-15.03
-1.72
10.51
21.23
30.29
37.57
42.82
45.77
46.31
44.77
41.89
38.59
35.6
33.21
31.3
29.5
27.54
25.48
23.62
22.36
21.82
21.78
21.71
20.99
19.22
16.32
12.55
8.37
4.17
0.13
-3.86
-8.1
-12.98
-18.78
-25.53
-32.96
-40.51
-47.37
-52.56
-55.13
-54.36
-49.89
-41.95
-31.23
-18.8
-5.9
6.32
16.94
25.38
31.33
34.77
35.87
35.0
32.65
29.4
25.85
22.49
19.62
17.35
15.59
14.23
13.15
12.3
11.62
11.01
10.2
8.84
6.62
3.42
-0.62
-5.1
-9.56
-13.68
-17.47
-21.28
-25.71
-31.4
-38.73
-47.69
-57.71
-67.62
-75.93
-81.09
-81.89
-77.84
-69.28
-57.28
-43.26
-28.56
-14.16
-0.59
11.89
23.04
32.53
39.95
45.01
47.7
48.34
47.54
45.93
44.01
42.03
40.03
37.93
35.77
33.6
31.58
29.73
27.95
25.9
23.26
19.77
15.41
10.42
5.19
0.13
-4.63
-9.18
-13.9
-19.34
-26.01
-34.17
-43.59
-53.42
-62.32
-68.63
-70.91
-68.34
-60.99
-49.8
-36.2
-21.69
-7.43
5.84
17.77
28.08
36.56
42.94
47.17
49.37
49.92
49.26
47.79
45.77
43.36
40.67
37.88
35.21
32.86
30.94
29.39
28.05
26.65
24.92
22.67
19.78
16.28
12.29
7.98
3.45
-1.33
-6.51
-12.39
-19.23
-27.13
-35.88
-44.8
-52.78
-58.41
-60.35
-57.76
-50.53
-39.47
-26.01
-11.81
1.75
13.82
24.02
32.31
38.68
43.03
45.21
45.24
43.5
40.61
37.37
34.45
32.21
30.62
29.4
28.21
26.88
25.42
23.92
22.37
20.58
18.12
14.67
10.09
4.61
-1.23
-6.91
-12.14
-17.05
-22.14
-28.07
-35.34
-43.99
-53.44
-62.52
-69.67
-73.34
-72.4
-66.55
-56.36
-43.14
-28.49
-13.81
-0.07
12.36
23.31
32.71
40.35
45.9
49.15
50.15
49.25
47.06
44.21
41.16
38.11
35.08
32.03
28.98
26.06
23.37
20.84
18.2
15.04
11.03
6.05
0.29
-5.85
-11.97
-17.85
-23.57
-29.52
-36.24
-44.26
-53.76
-64.39
-75.08
-84.24
-90.06
-91.01
-86.4
-76.51
-62.51
-46.03
-28.67
-11.62
4.42
19.12
32.35
43.91
53.56
60.98
65.95
68.36
68.36
66.3
62.72
58.22
53.35
48.61
44.27
40.41
37.01
33.88
30.8
27.53
23.88
19.73
15.02
9.78
4.09
-1.97
-8.37
-15.21
-22.69
-31.09
-40.62
-51.08
-61.68
-71.04
-77.41
-79.24
-75.66
-66.84
-53.86
-38.32
-21.8
-5.43
10.18
24.74
38.0
49.59
58.93
65.54
69.14
69.84
68.16
64.78
60.51
55.98
51.66
47.74
44.21
40.9
37.61
34.17
30.43
26.38
22.03
17.35
12.33
6.87
0.92
-5.55
-12.5
-19.88
-27.72
-36.02
-44.62
-53.0
-60.13
-64.63
-65.19
-60.98
-52.03
-39.26
-24.13
-8.17
7.38
21.74
34.45
45.14
53.44
58.97
61.54
61.3
58.76
54.67
49.81
44.83
40.16
36.02
32.47
29.46
26.83
24.32
21.66
18.62
15.15
11.37
7.46
3.57
-0.27
-4.23
-8.52
-13.41
-19.06
-25.57
-32.96
-41.11
-49.59
-57.57
-63.83
-67.03
-66.11
-60.69
-51.24
-38.9
-25.12
-11.21
1.87
13.54
23.45
31.26
36.64
39.4
39.56
37.52
33.98
29.72
25.48
21.7
18.56
16.01
13.89
12.04
10.3
8.53
6.62
4.47
2.01
-0.74
-3.77
-7.06
-10.58
-14.34
-18.37
-22.65
-27.22
-32.13
-37.43
-43.05
-48.6
-53.22
-55.73
-54.88
-49.89
-40.73
-28.24
-13.89
0.78
14.52
26.58
36.62
44.47
49.98
53.04
53.68
52.28
49.52
46.21
43.02
40.31
38.14
36.36
34.81
33.42
32.19
31.09
29.88
28.24
25.82
22.44
18.19
13.38
8.42
3.63
-0.87
-5.17
-9.54
-14.37
-20.01
-26.65
-34.15
-41.86
-48.66
-53.14
-54.06
-50.73
-43.29
-32.64
-20.1
-7.01
5.57
16.89
26.42
33.73
38.42
40.34
39.66
36.94
33.01
28.75
24.81
21.48
18.8
16.66
14.99
13.79
13.05
12.7
12.48
12.01
10.9
8.89
6.03
2.56
-1.19
-4.96
-8.69
-12.5
-16.64
-21.37
-26.85
-33.12
-39.94
-46.73
-52.51
-56.08
-56.3
-52.48
-44.66
-33.71
-21.07
-8.25
3.5
13.46
21.34
27.11
30.76
32.32
31.86
29.63
26.11
21.85
17.42
13.26
9.64
6.7
4.49
2.93
1.92
1.21
0.52
-0.44
-1.84
-3.77
-6.26
-9.27
-12.72
-16.51
-20.49
-24.58
-28.79
-33.3
-38.33
-43.96
-49.83
-55.11
-58.57
-59.0
-55.59
-48.34
-37.98
-25.74
-12.94
-0.64
10.43
19.89
27.5
33.08
36.52
37.84
37.26
35.18
32.09
28.48
24.77
21.36
18.5
16.37
14.9
13.81
12.68
11.01
8.54
5.26
1.37
-2.81
-7.04
-11.31
-15.73
-20.47
-25.64
-31.23
-37.2
-43.39
-49.46
-54.81
-58.48
-59.32
-56.38
-49.28
-38.5
-25.25
-11.15
2.27
13.96
23.42
30.6
35.62
38.53
39.36
38.2
35.35
31.38
27.01
22.87
19.38
16.59
14.33
12.27
10.23
8.09
5.91
3.77
1.71
-0.27
-2.28
-4.49
-7.11
-10.34
-14.32
-19.14
-24.82
-31.29
-38.34
-45.45
-51.72
-55.91
-56.79
-53.49
-45.9
-34.77
-21.56
-7.91
4.76
15.53
24.03
30.26
34.3
36.27
36.28
34.57
31.54
27.74
23.82
20.28
17.37
15.11
13.28
11.54
9.61
7.4
4.98
2.62
0.55
-1.09
-2.42
-3.83
-5.79
-8.75
-12.98
-18.55
-25.27
-32.79
-40.51
-47.59
-52.9
-55.3
-53.88
-48.32
-39.09
-27.32
-14.46
-1.87
9.54
19.25
27.11
32.99
36.75
38.25
37.54
35.0
31.29
27.21
23.45
20.38
17.92
15.78
13.6
11.15
8.43
5.61
2.83
0.11
-2.66
-5.66
-9.06
-12.9
-17.14
-21.73
-26.71
-32.14
-37.99
-43.97
-49.35
-53.12
-54.18
-51.71
-45.48
-35.98
-24.28
-11.69
0.55
11.59
20.91
28.3
33.62
36.77
37.73
36.62
33.86
30.09
26.03
22.3
19.21
16.73
14.54
12.2
9.44
6.22
2.7
-0.81
-4.08
-7.03
-9.79
-12.66
-15.96
-20.07
-25.3
-31.82
-39.58
-48.06
-56.17
-62.42
-65.28
-63.66
-57.28
-46.84
-33.71
-19.53
-5.68
6.94
17.87
26.92
33.91
38.58
40.76
40.47
38.11
34.33
29.96
25.7
22.02
19.04
16.64
14.56
12.58
10.51
8.27
5.86
3.29
0.59
-2.31
-5.58
-9.5
-14.38
-20.5
-27.99
-36.71
-46.1
-55.22
-62.79
-67.35
-67.75
-63.33
-54.28
-41.49
-26.39
-10.51
4.87
18.88
31.03
40.98
48.46
53.16
54.92
53.87
50.53
45.77
40.6
35.85
31.99
29.0
26.5
24.02
21.16
17.81
14.09
10.26
6.51
2.88
-0.8
-4.79
-9.31
-14.43
-20.19
-26.58
-33.65
-41.34
-49.33
-56.76
-62.28
-64.33
-61.7
-53.91
-41.55
-25.99
-9.07
7.56
22.69
35.66
46.18
54.11
59.32
61.75
61.54
59.11
55.1
50.3
45.4
40.93
37.12
34.01
31.51
29.44
27.53
25.52
23.17
20.29
16.76
12.59
7.8
2.42
-3.54
-10.06
-17.11
-24.72
-32.91
-41.65
-50.72
-59.47
-66.79
-71.21
-71.33
-66.22
-55.92
-41.4
-24.28
-6.37
10.79
26.18
39.22
49.64
57.24
61.9
63.7
63.0
60.52
57.09
53.48
50.17
47.3
44.79
42.51
40.43
38.64
37.2
36.05
34.87
33.18
30.44
26.34
20.94
14.59
7.82
1.1
-5.34
-11.61
-18.08
-25.12
-33.04
-41.88
-51.31
-60.59
-68.52
-73.67
-74.67
-70.65
-61.61
-48.45
-32.72
-16.11
-0.02
14.63
27.38
37.9
45.9
51.15
53.6
53.63
51.98
49.55
47.08
44.9
42.97
41.01
38.75
36.13
33.3
30.53
28.01
25.78
23.68
21.42
18.71
15.39
11.47
7.16
2.77
-1.44
-5.38
-9.18
-13.16
-17.74
-23.28
-29.95
-37.59
-45.65
-53.19
-58.95
-61.56
-60.01
-53.9
-43.68
-30.53
-16.01
-1.61
11.57
22.9
32.01
38.71
42.77
44.14
43.07
40.17
36.34
32.46
29.12
26.49
24.42
22.62
20.95
19.43
18.23
17.44
16.94
16.41
15.38
13.49
10.64
6.99
2.87
-1.35
-5.47
-9.54
-13.73
-18.41
-23.89
-30.37
-37.85
-45.93
-53.77
-60.13
-63.62
-63.06
-57.89
-48.45
-35.83
-21.6
-7.35
5.7
16.82
25.68
32.21
36.43
38.44
38.5
37.07
34.76
32.22
29.92
28.04
26.46
24.9
23.13
21.11
19.02
17.11
15.51
14.09
12.48
10.25
7.16
3.24
-1.22
-5.83
-10.32
-14.58
-18.8
-23.22
-28.12
-33.75
-40.23
-47.52
-55.23
-62.55
-68.24
-70.92
-69.4
-63.17
-52.58
-38.78
-23.37
-7.95
6.18
18.25
27.9
35.0
39.57
41.74
41.78
40.21
37.71
34.98
32.52
30.5
28.74
26.89
24.68
22.1
19.4
16.95
14.96
13.32
11.59
9.24
5.98
1.9
-2.55
-6.74
-10.23
-12.95
-15.2
-17.55
-20.6
-24.86
-30.56
-37.64
-45.53
-53.24
-59.36
-62.38
-61.11
-55.17
-45.12
-32.32
-18.49
-5.17
6.63
16.53
24.53
30.73
35.13
37.67
38.38
37.53
35.71
33.54
31.54
29.91
28.59
27.35
26.05
24.68
23.36
22.19
21.08
19.81
17.95
15.14
11.18
6.15
0.43
-5.46
-11.01
-15.94
-20.26
-24.27
-28.45
-33.26
-38.98
-45.58
-52.51
-58.75
-62.96
-63.8
-60.39
-52.66
-41.4
-28.05
-14.17
-1.03
10.7
20.77
29.13
35.64
40.06
42.19
42.1
40.24
37.32
34.08
31.04
28.31
25.76
23.16
20.37
17.53
14.91
12.79
11.23
9.98
8.56
6.44
3.32
-0.74
-5.37
-10.03
-14.28
-17.95
-21.25
-24.6
-28.55
-33.5
-39.61
-46.67
-54.04
-60.71
-65.37
-66.74
-63.9
-56.6
-45.43
-31.68
-16.95
-2.76
9.9
20.51
28.96
35.22
39.26
41.04
40.68
38.61
35.52
32.19
29.29
27.12
25.67
24.66
23.81
22.99
22.17
21.4
20.67
19.75
18.28
15.92
12.44
7.97
2.84
-2.42
-7.42
-11.99
-16.2
-20.38
-24.87
-30.01
-36.0
-42.84
-50.24
-57.5
-63.55
-67.04
-66.75
-62.01
-52.96
-40.57
-26.37
-11.98
1.33
12.8
22.14
29.29
34.27
37.09
37.84
36.84
34.69
32.11
29.76
27.99
26.75
25.7
24.47
22.9
21.11
19.35
17.81
16.41
14.77
12.46
9.16
4.91
0.06
-4.96
-9.76
-14.23
-18.54
-23.0
-27.95
-33.71
-40.43
-48.0
-55.87
-63.0
-68.04
-69.55
-66.56
-58.9
-47.29
-33.07
-17.83
-2.93
10.7
22.51
32.2
39.52
44.29
46.45
46.21
44.1
40.85
37.22
33.76
30.73
28.18
25.98
23.98
22.19
20.63
19.37
18.31
17.17
15.55
13.04
9.45
4.93
-0.15
-5.29
-10.15
-14.69
-19.16
-24.03
-29.78
-36.75
-45.0
-54.13
-63.27
-71.07
-75.97
-76.59
-72.13
-62.7
-49.3
-33.56
-17.23
-1.77
11.91
23.42
32.7
39.82
44.76
47.53
48.25
47.23
44.92
41.97
38.84
35.84
33.0
30.25
27.54
24.95
22.73
21.09
20.04
19.33
18.45
16.9
14.31
10.67
6.28
1.6
-2.93
-7.08
-10.96
-14.94
-19.66
-25.7
-33.42
-42.71
-52.8
-62.26
-69.3
-72.25
-70.08
-62.75
-51.23
-37.12
-22.1
-7.44
6.13
18.35
29.07
38.02
44.82
49.18
51.1
50.97
49.53
47.55
45.63
44.0
42.6
41.22
39.64
37.84
35.96
34.29
32.98
31.98
30.96
29.4
26.79
22.92
17.87
12.07
6.06
0.27
-5.08
-10.11
-15.14
-20.65
-27.06
-34.71
-43.62
-53.41
-63.14
-71.32
-76.23
-76.34
-70.93
-60.31
-45.79
-29.27
-12.61
2.85
16.43
27.99
37.59
45.21
50.69
53.85
54.7
53.62
51.28
48.44
45.73
43.42
41.46
39.58
37.5
35.17
32.73
30.41
28.34
26.42
24.32
21.64
18.09
13.64
8.6
3.4
-1.48
-5.79
-9.53
-13.0
-16.65
-20.94
-26.26
-32.73
-40.1
-47.7
-54.43
-58.95
-59.99
-56.74
-49.1
-37.8
-24.15
-9.7
4.2
16.58
26.93
35.01
40.73
44.02
44.93
43.67
40.78
37.04
33.24
29.97
27.43
25.49
23.8
22.09
20.3
18.57
17.17
16.21
15.58
14.83
13.4
10.8
6.85
1.79
-3.84
-9.33
-14.13
-18.05
-21.4
-24.83
-29.16
-35.0
-42.52
-51.26
-60.12
-67.56
-71.93
-71.93
-66.97
-57.4
-44.37
-29.51
-14.45
-0.42
11.91
22.38
30.96
37.65
42.3
44.86
45.46
44.6
42.93
41.08
39.37
37.82
36.2
34.26
31.95
29.45
27.06
25.02
23.34
21.73
19.73
16.87
12.88
7.83
2.05
-3.92
-9.58
-14.64
-19.07
-23.15
-27.37
-32.34
-38.59
-46.34
-55.38
-64.81
-73.17
-78.7
-79.84
-75.73
-66.51
-53.3
-37.77
-21.6
-6.09
7.99
20.26
30.54
38.63
44.38
47.75
48.99
48.6
47.25
45.53
43.81
42.2
40.61
38.84
36.79
34.5
32.16
29.97
28.07
26.37
24.53
22.11
18.68
14.11
8.61
2.64
-3.29
-8.79
-13.77
-18.49
-23.41
-29.03
-35.71
-43.49
-51.95
-60.15
-66.76
-70.28
-69.43
-63.66
-53.35
-39.73
-24.5
-9.3
4.73
17.04
27.54
36.25
43.09
47.9
50.53
51.02
49.75
47.32
44.29
41.1
37.97
34.95
32.06
29.42
27.23
25.65
24.7
24.15
23.57
22.39
20.14
16.59
11.83
6.28
0.49
-5.0
-9.92
-14.33
-18.59
-23.25
-28.81
-35.53
-43.2
-51.2
-58.35
-63.23
-64.44
-61.06
-53.01
-41.09
-26.8
-11.89
2.16
14.5
24.84
33.22
39.74
44.34
46.94
47.6
46.63
44.57
41.9
39.0
36.01
32.95
29.87
26.94
24.37
22.27
20.48
18.64
16.35
13.27
9.37
4.86
0.14
-4.42
-8.59
-12.32
-15.85
-19.62
-24.18
-30.04
-37.48
-46.32
-55.77
-64.47
-70.73
-73.01
-70.35
-62.73
-51.04
-36.82
-21.77
-7.31
5.64
16.59
25.36
31.84
35.93
37.6
37.13
35.01
32.0
28.84
26.08
23.93
22.33
21.11
20.09
19.22
18.48
17.81
17.01
15.73
13.6
10.41
6.21
1.3
-3.91
-9.04
-13.97
-18.81
-23.91
-29.65
-36.32
-43.93
-52.07
-59.8
-65.79
-68.58
-67.01
-60.69
-50.14
-36.72
-22.13
-7.98
4.64
15.23
23.71
30.18
34.76
37.53
38.63
38.36
37.12
35.38
33.53
31.76
30.12
28.58
27.04
25.43
23.68
21.72
19.46
16.85
13.9
10.67
7.33
4.02
0.83
-2.28
-5.44
-8.84
-12.69
-17.25
-22.71
-29.13
-36.25
-43.25
-48.81
-51.43
-49.94
-43.91
-33.97
-21.55
-8.43
3.86
14.39
22.8
29.13
33.49
35.98
36.71
35.93
34.1
31.79
29.61
27.99
27.19
27.22
27.87
28.69
29.05
28.29
25.88
21.57
15.42
7.8
-0.84
-10.1
-19.68
-29.43
-39.23
-49.0
-58.59
-67.87
-76.71
-84.93
-92.12
-97.53
-100.03
-98.38
-91.49
-78.96
-61.21
-39.43
-15.35
9.24
32.79
54.19
72.67
87.68
98.9
106.21
109.68
109.52
106.06
99.63
90.62
79.59
67.37
54.92
43.14
32.65
23.58
15.68
8.51
1.73
-4.83
-11.13
-17.14
-22.89
-28.5
-34.12
-39.82
-45.71
-51.93
-58.61
-65.81
-73.24
-80.11
-85.22
-87.32
-85.55
-79.86
-71.0
-60.34
-49.24
-38.68
-29.12
-20.55
-12.83
-5.89
0.15
5.07
8.69
10.95
11.96
11.94
11.24
10.21
9.1
8.05
6.98
5.61
3.59
0.61
-3.46
-8.51
-14.22
-20.1
-25.71
-30.62
-34.63
-37.78
-40.39
-43.04
-46.4
-51.0
-57.0
-63.91
-70.64
-75.74
-77.66
-75.3
-68.19
-56.69
-41.83
-25.03
-7.74
8.81
23.76
36.62
47.16
55.33
61.18
64.83
66.49
66.42
65.0
62.59
59.65
56.59
53.91
52.13
51.74
53.07
56.26
61.02
66.65
72.07
76.02
77.37
75.37
69.8
60.72
48.19
32.08
12.13
-11.6
-38.21
-65.49
-90.01
-107.85
-115.53
-111.16
-94.85
-68.79
-36.46
-1.83
31.55
60.99
84.92
102.75
114.71
121.55
124.48
124.81
123.85
122.67
121.98
122.09
122.94
124.15
125.02
124.55
121.54
114.8
103.47
87.49
67.78
46.18
24.84
5.45
-11.45
-26.72
-42.11
-59.38
-79.34
-101.46
-124.0
-144.71
-161.41
-172.56
-177.24
-175.11
-166.31
-151.62
-132.49
-110.96
-89.29
-69.46
-52.67
-39.23
-28.82
-20.8
-14.62
-10.0
-6.87
-5.24
-5.1
-6.2
-8.17
-10.45
-12.48
-13.79
-14.17
-13.72
-12.81
-11.97
-11.69
-12.26
-13.72
-15.9
-18.49
-21.19
-23.81
-26.33
-28.76
-31.33
-34.32
-38.07
-42.89
-48.8
-55.33
-61.42
-65.57
-66.23
-62.33
-53.71
-41.22
-26.44
-11.11
3.34
16.17
27.14
36.3
43.63
48.9
51.93
52.75
51.78
49.76
47.42
45.25
43.4
41.74
40.14
38.52
36.94
35.51
34.22
32.9
31.33
29.33
26.85
23.91
20.61
16.98
13.05
8.78
4.12
-1.11
-7.14
-14.2
-22.28
-30.9
-39.01
-45.16
-47.85
-46.09
-39.75
-29.65
-17.24
-4.12
8.4
19.53
28.91
36.42
41.94
45.3
46.36
45.23
42.32
38.39
34.25
30.58
27.75
25.77
24.44
23.48
22.73
22.12
21.57
20.94
19.95
18.3
15.77
12.37
8.32
3.94
-0.55
-5.14
-10.12
-15.88
-22.79
-30.87
-39.66
-48.15
-54.97
-58.68
-58.21
-53.19
-44.04
-31.87
-18.08
-4.02
9.29
21.17
31.2
39.03
44.43
47.28
47.72
46.12
43.11
39.32
35.3
31.44
27.97
25.05
22.79
21.25
20.33
19.73
18.92
17.42
14.85
11.14
6.48
1.28
-4.03
-9.2
-14.11
-18.92
-23.92
-29.45
-35.81
-43.06
-50.93
-58.63
-64.96
-68.54
-68.2
-63.33
-54.13
-41.57
-27.06
-12.04
2.34
15.32
26.59
36.05
43.69
49.48
53.42
55.57
56.13
55.38
53.65
51.25
48.39
45.27
42.11
39.11
36.48
34.32
32.52
30.83
28.93
26.51
23.46
19.81
15.73
11.4
6.91
2.18
-2.98
-8.86
-15.76
-23.84
-33.0
-42.67
-51.82
-59.03
-62.9
-62.43
-57.39
-48.44
-36.85
-24.15
-11.58
0.13
10.72
20.22
28.57
35.58
40.96
44.5
46.22
46.49
45.81
44.71
43.52
42.3
40.94
39.25
37.2
34.94
32.76
30.96
29.65
28.7
27.72
26.25
23.91
20.53
16.22
11.37
6.39
1.6
-2.87
-7.16
-11.57
-16.49
-22.29
-29.16
-37.02
-45.4
-53.43
-59.87
-63.4
-62.91
-57.92
-48.75
-36.45
-22.52
-8.42
4.72
16.28
26.05
33.98
40.03
44.1
46.1
46.09
44.4
41.55
38.2
34.91
32.04
29.73
27.87
26.33
25.0
23.89
23.0
22.26
21.45
20.17
18.05
14.86
10.71
6.0
1.25
-3.08
-6.78
-9.98
-13.05
-16.46
-20.68
-26.0
-32.52
-39.94
-47.59
-54.42
-59.2
-60.89
-58.92
-53.42
-45.18
-35.3
-24.93
-14.92
-5.81
2.1
8.63
13.58
16.79
18.27
18.21
17.06
15.42
13.81
12.62
11.94
11.58
11.3
10.9
10.36
9.85
9.59
9.67
9.92
9.9
9.21
7.53
4.93
1.66
-1.89
-5.36
-8.58
-11.61
-14.66
-18.06
-22.24
-27.52
-34.11
-41.79
-49.87
-57.21
-62.38
-64.17
-61.94
-55.8
-46.61
-35.54
-23.75
-12.06
-0.91
9.5
18.89
26.9
33.03
36.91
38.46
38.0
36.17
33.68
31.17
28.98
